TEXTURE AT STRAIN = 0
1.0   1.0   1.0
DISCRETE TEXTURE FROM ODF FILE RD_625C_initial
B 4327
 192.860  104.853  324.566      3046.50
 351.944   29.307   73.967      2775.04
 351.718   80.060  211.738      2708.93
 179.745   82.421  151.434      2554.22
   4.003  153.215  246.156      2537.34
 201.282   39.025  336.740      2392.47
 342.692  135.132  233.166      2368.56
 173.620  133.595  327.054      2319.33
   6.510   93.177   30.932      2295.42
   4.715  139.649  257.321      2295.42
 168.356   16.938  211.283      2219.47
 226.678   27.144  222.079      2213.84
 184.040   84.751  320.910      2213.84
  14.022  137.972  214.663      2204.00
  23.070  136.345  237.104      2099.92
 348.542   51.905   65.752      2073.19
   7.960  138.529  259.653      2036.62
  13.049  145.426  231.883      2031.00
 189.767   86.541  141.086      2029.59
 189.858  150.398  109.607      2016.93
 203.398  134.705   13.586      2000.05
 147.992  145.783  100.760      1984.58
  28.298   34.421   45.132      1957.86
 166.549  147.795  103.694      1952.23
 340.123   87.803  257.445      1945.20
 201.454   28.597  340.038      1942.39
  13.668  147.405  221.332      1925.51
 182.853   83.723  315.698      1852.37
  14.661  148.654  204.134      1832.68
 183.615   93.762  324.924      1805.96
 168.190  109.987  344.381      1798.92
 355.282   95.457  231.080      1796.11
 306.108   30.068   90.779      1786.26
 357.219  150.509  244.333      1770.79
   4.961   73.498  242.205      1748.29
 155.213  148.175  289.531      1727.19
   1.202   93.285  262.404      1725.79
 170.417  132.962  315.203      1706.09
 343.395   27.242   23.444      1697.65
 354.765   67.577   61.110      1675.15
  19.643  143.351  203.459      1668.12
  16.175  145.492  239.833      1654.05
 357.675   66.032   42.501      1642.80
 358.444   69.902   45.517      1637.18
 156.888  130.619  109.001      1637.18
 322.763   20.924   87.550      1630.14
 194.394  133.329  154.907      1616.08
   4.391  118.241  233.849      1593.57
   7.900   36.761   68.284      1587.95
 174.878  147.037  103.581      1585.13
  13.535   42.138   35.227      1582.32
 190.084  103.740  317.666      1571.07
 347.338  178.664  166.337      1559.82
  48.633   34.061   28.651      1554.19
 358.522   90.283   27.352      1551.38
 332.064   41.865   72.822      1540.13
 178.480  105.065  305.411      1530.28
   8.555  140.125  252.166      1521.84
 160.586  135.557  103.460      1516.22
 215.169   44.157  117.459      1495.12
 191.368   36.507  341.271      1478.24
 204.913   56.355  292.596      1469.80
  16.192  144.021  247.750      1468.39
   1.386  158.394  243.153      1468.39
  13.204  139.960  240.706      1465.58
 328.802  152.208  180.321      1450.11
 194.716  145.099  338.928      1448.70
  34.433  143.391  248.934      1444.48
  47.334  162.389  276.214      1434.64
 355.512   31.421   70.577      1414.95
 187.092  144.424  348.017      1407.91
 343.618   39.228   32.915      1407.91
 155.670   35.873  332.021      1400.88
 177.173   92.063  327.722      1392.44
  48.149   33.985   29.717      1367.13
 162.472  130.148   78.767      1361.50
 355.844   46.511   73.918      1360.09
  17.933   25.421   76.021      1358.69
  21.993   21.343   21.924      1357.28
   5.011   98.173  257.582      1357.28
 158.110   41.194  154.424      1347.43
  34.946   40.027  230.193      1346.03
 215.127   30.797  295.434      1341.81
 322.971  161.840  211.789      1340.40
 349.908   87.583   39.426      1334.78
 218.888   45.748    7.781      1331.96
  37.670   22.857   33.230      1331.96
 339.520   28.624   81.512      1326.34
 312.675  143.417  158.841      1324.93
  42.819   26.086  316.687      1319.30
 190.124  136.902  357.597      1319.30
   1.113   71.826  213.141      1319.30
 158.044  148.137   95.365      1317.90
  11.198   67.897  207.242      1315.08
 197.405  144.209   58.194      1310.87
 171.114  156.918   33.105      1302.43
  16.500   38.742   40.609      1289.77
 356.800   51.398   51.679      1286.95
 185.378  140.543  149.070      1281.33
 145.986  141.856   76.283      1271.48
 357.859   62.212   20.579      1267.26
 158.766  143.392    8.610      1267.26
  16.882  144.886  190.898      1265.86
 350.757  139.553  205.702      1264.45
 172.423  125.844  105.524      1251.79
 169.217  139.526  115.100      1248.98
  20.196  128.632  242.484      1244.76
 182.597  141.482   89.562      1237.73
 179.307  135.340  355.443      1229.29
 353.140   37.378   68.819      1226.47
   8.457  138.684  199.496      1225.07
 353.498   40.924   77.460      1223.66
 340.404   22.511   52.156      1219.44
  30.408   41.112   46.877      1215.22
 116.308   17.546  344.528      1215.22
 195.937  118.106  323.445      1209.60
 137.899  152.187  267.657      1195.53
 138.209   33.103  312.329      1194.13
 353.402  128.623  239.406      1187.09
 354.949  128.642  219.882      1184.28
 336.557   16.854   63.371      1181.47
 212.313  151.579  353.190      1175.84
 179.026  148.291   51.087      1165.99
 199.780   25.687  354.997      1161.78
 238.811   45.694  281.095      1153.34
 181.778  140.538  346.103      1146.30
  40.647  145.601  261.564      1142.08
  16.721   53.319   21.228      1137.86
 347.195   54.472   80.482      1135.05
 341.513   34.917   25.678      1132.24
 186.414  149.023  118.196      1132.24
  16.489   46.245   61.285      1130.83
 167.266  138.084  330.566      1128.02
  13.886   76.383   34.410      1126.61
 345.375  147.639  223.664      1123.80
 201.374  144.967  354.103      1119.58
 359.013  148.638  190.838      1118.17
 182.368  129.891  133.099      1116.77
 168.882  140.504   98.086      1112.55
 325.083   43.503   37.691      1105.52
 198.414   29.100    0.522      1104.11
 190.592   88.596  148.329      1099.89
 330.694   20.704   66.502      1088.64
   2.402   26.850   38.429      1085.82
 355.392   48.164   47.409      1085.82
  25.348   39.750   38.657      1081.60
 351.312   87.548   30.332      1080.20
 344.206  144.876  211.979      1075.98
 177.452   78.662  121.369      1064.73
 194.188   90.983  324.078      1063.32
  60.572  137.983  261.907      1061.91
   2.606  139.201  237.958      1059.10
 356.813  139.324  252.177      1056.29
  19.677   46.735   28.041      1053.47
 347.997  155.899  222.153      1052.07
  45.767   29.753    1.418      1052.07
  10.007   66.578   74.599      1042.22
 194.500   50.425  293.702      1039.41
 219.793   35.167  299.139      1036.60
 348.564   34.725   35.110      1036.60
 357.185   85.976  265.977      1036.60
 355.209   25.527   62.765      1023.94
 185.457   83.529  343.973      1022.53
 340.291   52.759   66.439      1019.72
 327.292  136.413  234.658      1016.91
 103.683  157.264   10.231      1016.91
 148.773  126.626  111.463      1014.09
   3.843   42.190   62.802      1011.28
 171.986   73.806  151.208       995.81
  97.367  155.507  291.212       995.81
   4.554   39.144   73.357       995.81
 191.970  140.436   72.432       994.40
  68.045   29.634   25.213       991.59
 189.010  113.311  139.749       988.77
 221.231   39.722  319.584       987.37
 193.788  106.172  341.283       983.15
 353.143  137.089  214.496       971.90
 349.126   83.755   79.951       969.08
   0.942   41.268   32.774       966.27
 348.242   36.772   55.974       957.83
 359.190   95.285  201.912       957.83
   6.059   51.632   35.546       957.83
 350.179  151.328  208.422       953.61
 354.087  145.442  246.730       950.80
 185.893  149.997   78.422       950.80
 174.284  143.145   96.199       942.36
  12.127   43.193   54.802       942.36
 113.211  141.568  111.708       942.36
 350.063  122.166  237.356       940.95
   0.946  103.561  207.381       940.95
 174.846  150.393  316.107       939.55
  14.025  149.681  215.467       938.14
 175.881  155.692   42.529       936.73
 294.430  147.486  208.136       935.33
 187.882  158.204   10.918       933.92
 177.846   52.150  290.881       931.11
   6.619  127.699  258.967       924.08
 342.194   25.282   65.724       924.08
  26.492   39.917   17.449       924.08
  16.115  139.718  135.854       922.67
 171.801   86.550  119.872       921.26
  12.093   44.013   32.122       919.86
 359.810  130.667  167.424       915.64
  57.963  150.108  268.340       914.23
 159.919   25.634   48.131       912.82
 352.424  133.779  230.480       911.42
 169.464  145.827  329.410       911.42
 186.141   74.871  169.120       908.60
   7.463  151.922  260.612       908.60
 175.115   78.965  343.681       908.60
 329.707  153.217  174.807       904.38
 187.951  153.615  116.063       904.38
  20.824   49.371   58.800       902.98
 195.307  132.255  324.500       897.35
   4.680   55.313   52.827       895.95
   0.149  171.106  108.348       893.13
 339.961  136.368  236.175       891.73
 154.130  143.286   87.659       890.32
  39.004  149.932  282.145       887.51
 179.907   31.941  122.398       887.51
 349.208   38.536   33.241       881.88
 230.460   23.624  188.362       880.47
 209.476  153.412   35.075       879.07
 347.457   95.048  254.500       874.85
 358.907  102.990  231.573       870.63
  25.789   34.952   29.618       870.63
   2.354   99.190  193.658       867.82
 325.210  133.206  214.386       867.82
 226.966  157.943   40.298       865.00
 189.368   92.495  333.899       863.60
 351.787   42.607   65.123       863.60
  24.841  137.097  259.885       862.19
 231.728  170.702  108.894       862.19
 345.180  138.993  208.375       860.78
 336.175   26.696   34.676       859.38
   5.443  146.104  240.280       855.16
 143.054  174.155  243.954       855.16
 341.749   38.522   71.305       853.75
  65.737  154.605  289.212       853.75
   6.985  140.428  232.015       852.34
 172.585   31.371  155.905       850.94
 330.335  147.547  227.339       850.94
 193.238   40.676  225.425       850.94
  10.721  143.682  197.596       849.53
 287.905  158.460   49.225       849.53
 358.039   29.605   63.395       849.53
  26.878   26.146   60.573       848.12
 332.174  142.295  213.502       846.72
  11.116   77.097  240.352       841.09
  14.217  149.869  199.433       839.69
 296.241  157.659  188.100       839.69
 178.029   88.669  303.287       838.28
 316.440  151.696  146.470       836.87
 186.857   44.868  342.467       836.87
  32.214  155.737  289.432       829.84
  82.694   33.013  175.092       828.43
 341.321   48.375   78.266       827.03
  28.242  160.301  206.382       827.03
 157.809  136.349  333.420       827.03
  10.015   84.726  261.307       825.62
 182.867   91.675  163.777       822.81
 158.520   43.905  139.024       818.59
 183.649   28.381    0.183       818.59
 351.798   41.984   37.358       817.18
 355.072   36.553   39.725       814.37
 340.835  130.707  224.596       814.37
 310.393   20.201  120.697       814.37
 182.575   30.906   13.848       812.96
   6.677   40.405   45.191       811.55
   7.136  107.396   86.046       804.52
  30.357   36.740   41.015       804.52
 212.375  139.147  328.297       803.12
 186.669  162.114  116.853       801.71
 327.834   26.589   67.596       797.49
   2.532  130.260  221.706       797.49
 292.578   33.663  284.872       797.49
 356.992   40.979   33.352       796.08
 169.253  100.662  102.704       794.68
  20.229  144.988  279.731       793.27
  14.621   46.781   38.928       790.46
 172.136   61.083  331.955       789.05
 277.145   23.745  133.851       789.05
 358.744   94.177  227.672       787.64
 165.786  148.458   48.922       787.64
 183.222  138.548    7.356       783.42
 166.213  112.368  155.084       783.42
 328.662   53.294   85.408       780.61
 164.950  134.833  349.254       779.21
 350.360  139.203  262.339       779.21
 309.269   29.339  111.996       769.36
 197.973   89.207  328.464       767.95
   7.950  151.413  248.389       767.95
   6.877  146.302  232.208       767.95
 339.836   40.168   59.213       766.55
  23.176  149.518  233.292       763.73
 346.730   39.015   79.923       762.33
  15.334  133.745  252.081       760.92
 214.663  143.291  336.198       760.92
 348.532   31.990   48.786       760.92
  11.606   32.631   42.735       760.92
 152.075  136.238  340.651       758.11
 192.332   46.961  285.905       758.11
  77.814  155.494  290.205       756.70
 358.410   73.395   70.415       752.48
 220.790  137.686  353.367       752.48
 155.589  149.261   63.427       752.48
 169.367  152.747  268.094       751.08
 171.712   74.422  160.388       749.67
  17.155  149.390  255.083       749.67
 329.707  136.054  173.715       746.86
 158.419   36.314   56.344       746.86
  24.517   92.996  217.530       742.64
  16.789   29.471   14.646       742.64
 184.875  145.627  119.693       741.23
 358.040  127.105  246.038       739.82
 330.755   41.859   28.716       737.01
   2.436  129.951  249.547       734.20
 211.732  162.004  110.478       732.79
 175.525   30.728   25.990       732.79
 283.868   29.351  119.103       727.16
 322.077  144.399  167.247       727.16
  88.423   30.488  193.249       725.76
 177.412   49.612  354.600       725.76
 358.963   18.320   54.584       724.35
 184.590   86.235  312.492       722.94
 203.045   14.710  190.715       720.13
 347.862   32.233   73.460       720.13
 349.180  104.272  258.532       717.32
  21.184   80.562  216.820       714.51
 284.720   41.589  211.065       711.69
  83.654  171.526  356.544       710.29
 295.200  155.912  171.104       710.29
 358.610  136.712  200.740       708.88
 198.407   30.590  141.196       706.07
 181.608  163.960   83.081       706.07
 183.461   28.567  248.706       704.89
 231.010   13.455   69.532       704.66
 161.257   63.395  119.935       703.25
 342.974   35.404   32.073       701.85
 181.146  139.752  104.289       700.44
 327.831  161.962  191.358       700.44
 172.214  110.154  143.822       700.44
 166.672   64.784  351.609       699.03
 189.236  165.073   70.378       699.03
 190.691  147.279   14.376       696.22
 167.241  115.079  141.094       696.22
   8.177   45.315   35.062       694.81
 140.658   36.973   51.197       694.81
 184.348  153.168  129.301       694.81
 173.091   94.378  341.831       693.41
 350.701   48.579   72.287       693.41
 184.040   54.129  358.028       692.00
 344.125   31.588   52.302       692.00
 207.771  144.061  338.161       690.60
   0.005  114.395  220.549       690.60
   7.132   29.182   14.318       687.78
 209.606   26.981  108.068       684.97
 342.936  110.203  242.465       684.97
 131.633   31.633  183.257       684.97
 154.201   43.402   53.375       684.97
 182.413  144.689  339.132       683.56
  10.397  128.283  197.286       682.16
   1.279  112.721  213.039       679.34
  32.652  146.142  264.522       676.53
 190.872   35.333  356.836       676.53
 221.056  147.556  343.341       673.72
 182.814   89.508  337.269       673.72
 337.422  136.664  169.895       672.31
 340.977   24.368   32.282       670.90
   4.219   23.861   65.344       670.90
   9.909  157.680  293.398       669.50
  20.214   51.409    1.545       669.50
  86.323  158.743    2.541       669.50
 357.250   83.036   27.097       668.09
 111.600   22.521  269.778       666.68
   3.060   96.916  230.174       666.68
  28.796   48.164  348.349       665.28
 188.062   21.803  225.304       662.47
  17.199  123.485  235.868       662.47
 358.554  104.438  247.912       661.06
 181.737  114.612  103.122       661.06
 321.186  140.550  227.969       658.25
   0.961  135.547  231.514       658.25
 346.786  149.768  231.739       658.25
 357.652   98.206  224.209       656.84
 329.174  132.499  177.057       655.43
  21.925  153.134  286.462       655.43
 200.470  130.315  114.525       654.03
 355.693  146.912  247.114       654.03
 193.078   27.864  351.546       652.62
 336.817  132.313  214.325       652.62
   0.297  136.861  164.399       651.21
   4.341   28.597   51.260       651.21
 336.271  146.331  228.318       651.21
 153.373  138.502  323.805       649.81
 148.405   31.665  160.940       649.81
   9.161  153.538  259.325       646.99
 167.146  102.878  331.613       645.59
  35.403   27.617  325.258       645.59
 138.879   29.908  165.102       645.59
 151.023  151.857   98.342       644.18
 152.220   11.414  219.783       644.18
 172.744  143.998  102.452       644.18
 187.258   48.444  347.600       644.18
 294.365   32.551   81.170       644.18
 334.993  153.536  213.930       642.77
  15.137  138.642  206.344       635.74
 157.179   47.499  145.897       635.74
 321.050   35.078   36.974       635.74
 348.108  123.414  172.643       635.74
   2.526   90.078   89.222       634.34
 176.603  147.509   24.821       632.93
 268.483   26.843  326.832       632.93
  15.487   16.389   70.027       632.93
  19.652   87.536  222.010       630.12
 167.553   50.908   18.394       630.12
 338.678   57.033  257.706       630.12
 191.895   39.006  338.242       628.71
 107.555   36.224  345.620       628.71
 352.507   41.224   67.354       625.90
 183.389   33.586  293.445       624.49
  21.297  142.993  272.422       624.49
   0.337  122.030  195.183       623.08
 343.196  142.886  268.405       621.68
 174.780  142.698  345.616       618.86
 167.059   64.888  299.808       616.05
  12.161   42.046   35.401       616.05
 207.598  131.249  147.902       616.05
 355.517  138.781  238.457       614.64
 110.921   35.344  181.294       614.64
  18.790   39.780   85.519       613.24
  21.444   49.452  231.195       611.83
 123.340    9.234  166.814       610.42
 348.095  139.815  214.946       610.42
  11.936   36.494   42.885       610.42
 186.952  109.824  151.468       609.02
 167.891   43.752  282.633       607.61
 357.759   73.102   75.430       606.20
 357.543   97.230  203.309       606.20
 348.905  150.486  215.811       606.20
 198.388  161.727  104.592       604.80
   6.546  123.528  254.242       604.80
  87.750  118.599  127.226       604.80
 195.201  143.071  326.167       604.80
  61.520   25.676    2.309       604.80
  51.033   49.961   16.719       604.80
   0.141   83.857  221.599       603.39
  19.002  139.930  190.370       603.39
 194.231   36.890   95.542       603.39
   7.602   84.730   20.095       603.39
   1.013   42.257   62.969       603.39
 176.140   65.686  156.008       603.39
   4.661  149.708  259.505       601.99
 161.670   37.225  324.117       601.99
 172.616  107.700  132.002       601.99
 194.718  132.553  314.077       599.17
 358.743   35.726   70.206       599.17
 142.378   27.610  148.228       594.95
 172.444   92.535  322.397       593.78
  65.098  162.928  332.779       593.55
   5.178   78.295   37.525       593.55
   3.370  128.669  216.515       593.55
  54.807  147.696  310.750       593.55
 176.798  105.873  100.914       592.14
 182.027  135.692  107.256       592.14
  10.714   33.326   48.618       590.73
 223.167  138.898   70.797       589.33
 318.788  146.858  183.675       589.33
 351.918  137.168  219.893       587.92
 202.805   37.284  351.668       587.92
 194.931  157.996  115.860       586.51
 190.405  145.528  103.095       586.51
 172.478   79.360  354.276       585.11
  13.243  135.907  264.370       583.70
 197.702  136.505  352.315       582.29
 352.076  127.400  227.534       578.07
  17.050   39.297    4.745       576.67
 194.238   47.887  133.993       576.67
 205.764  138.667  114.918       576.67
 353.593  112.477  254.004       575.26
   2.016   57.502   49.547       575.26
 250.201   18.590   33.175       575.26
 183.876   63.396  290.561       573.86
  13.625   42.896   33.974       572.45
 342.417   84.496   38.241       571.04
 348.791   39.298   71.557       568.23
 194.428  138.741  322.823       568.23
 353.919   89.670   74.830       568.23
  15.236  119.762  254.501       566.82
 344.807   88.043  216.751       566.82
  20.330   43.595   33.777       566.82
 199.388  141.485   11.233       565.42
 348.475  139.228  245.915       565.42
   9.382   19.939   61.347       565.42
 153.131   51.020  158.571       564.01
 265.911   33.000   87.100       562.60
 160.695  135.602  345.160       562.60
  11.593  159.262  232.085       562.60
 349.326   57.496   68.137       562.60
 177.816  109.433  293.965       561.20
 188.120  160.578   96.179       561.20
 191.862   29.067  230.629       559.79
 175.342   32.857  229.360       558.38
 316.896  143.734  197.379       558.38
  34.327   45.359   30.777       558.38
 191.533  139.761  153.719       558.38
   2.478   94.875   82.161       556.98
 202.774   17.227  326.945       556.98
 177.792  116.528   96.588       556.98
 171.526  126.901  105.841       556.98
 189.586   37.155  298.794       555.57
 191.675   86.384  312.165       555.57
 358.353  131.486  181.538       555.57
 297.002  136.322  224.698       555.57
 115.072   36.247  324.620       552.76
 175.905   68.447  325.159       552.76
 186.767   79.200  108.969       552.76
   8.677   22.251   60.514       552.76
  18.205   32.225   49.780       552.76
 176.023   50.490  356.755       552.76
 183.143  148.679  333.120       549.94
 124.805  161.629  247.815       549.94
 357.960   95.522  220.496       548.54
 197.735   37.785  312.737       548.54
 359.588  136.585  230.858       547.13
 164.166   26.733  162.905       547.13
 262.252    3.531   91.700       547.13
  18.964  136.664  274.593       547.13
   4.837   41.456   45.927       545.73
  15.994  101.976   78.872       545.73
 346.011   38.983   41.300       545.73
 349.486   26.193   47.383       544.32
 206.664   37.075  293.207       544.32
 201.180  153.947  328.453       544.32
 341.554  146.152  224.641       542.91
 184.751  143.614  321.615       542.91
 173.712  134.484  339.068       542.91
 210.026   58.332  319.062       541.51
 343.354  140.305  222.680       541.51
 160.423   28.378  153.165       541.51
  51.554  150.201  291.387       540.10
  25.019  144.655  252.371       540.10
 176.600   55.445  147.288       538.69
 181.815  136.065   29.073       534.79
  16.159  147.992  272.117       534.47
   2.590  100.346  255.791       534.47
 286.055  137.000  217.347       534.47
 331.701  143.657  207.997       534.47
  42.543   37.461   41.884       534.47
 190.478   52.566  310.219       531.66
 165.980   97.718  336.548       531.66
 329.747  139.826  203.420       530.25
 183.593  101.846  309.486       530.25
 180.499  152.182   68.289       530.25
   2.199   36.026   43.980       530.25
 160.464  142.812  102.631       528.85
   4.254   58.387   57.100       528.85
 172.350  135.191  339.746       528.85
 201.137   29.260  338.769       528.85
 162.903  152.816  352.455       527.44
  36.062  140.748  193.247       527.44
 357.328  145.762  191.315       527.44
 179.794   30.774  352.960       526.03
  35.382   41.107   31.218       524.63
 151.965  143.380  317.369       523.22
 217.078  155.586  100.448       523.22
 359.992  132.665  200.742       521.81
 192.510  136.452   18.743       521.81
 294.636   33.334  116.313       521.81
 206.208  134.075  115.753       520.41
  28.159   36.622   12.545       520.41
  11.541  113.306  226.627       520.17
 183.855  113.107  143.515       519.00
 185.943  109.673  105.303       517.59
  17.436   68.042   69.198       517.59
 354.754   44.115   57.018       516.19
 328.020   32.079   80.978       516.19
  13.199  106.382  205.808       516.19
 205.565  165.260  314.124       516.19
 255.555   11.935  123.950       516.19
 243.300   25.151  184.674       516.19
 164.181  142.339  336.118       514.78
 351.029   87.399  259.633       514.78
 358.353   35.800   46.868       514.78
 356.325   78.989   44.648       514.78
 216.379   15.039   66.754       513.38
 201.320   55.945  134.462       513.38
 208.205  132.602  342.574       512.44
 339.729  139.510  212.194       511.97
  29.820   30.063   28.007       510.56
 328.690  143.503  208.328       510.56
 153.881   19.211  233.511       510.56
 323.612   39.479   51.698       510.56
 188.910  118.026  108.548       509.16
 146.544  141.868  335.670       509.16
 352.253   41.105   41.244       509.16
 358.649   78.748   45.052       507.75
 132.800  152.397   82.348       507.75
   7.921   43.582   11.923       507.75
 348.024   55.701   42.916       506.34
 179.604   44.379   25.266       506.34
 195.493   96.676  343.114       506.34
 187.778   63.505  150.727       506.34
 359.613   98.098  246.798       504.94
 204.864  152.854   32.427       504.94
 176.914  105.712  164.532       504.94
 182.233   97.183  153.545       504.94
  14.992   54.272   43.105       504.94
 198.272  107.217  324.998       503.53
 353.772  120.934  217.235       503.53
 160.165   36.848   27.812       503.53
 184.042   87.491  333.814       503.53
   9.913   35.320   21.148       503.53
 338.325  143.245  232.489       503.53
 137.467  142.808  290.527       502.12
 349.777   76.768   78.743       500.72
 337.228   47.617   61.243       500.72
 173.089   88.025  339.544       499.31
 168.754   46.677  147.288       499.31
 177.903  131.607  107.822       497.90
 352.370  111.279  246.654       497.90
  47.266  154.846  249.735       497.90
 336.704  153.597  250.473       496.50
 162.905   39.894  328.814       496.50
   7.177  109.157  240.727       495.09
 179.221   39.782  140.160       493.68
 145.284  159.443  359.306       492.28
 167.668  160.841   10.272       492.28
 346.246   46.539   58.063       490.87
 166.669  161.148   15.240       490.87
 150.123  152.058   13.427       490.87
 304.624   34.882   80.250       490.87
 177.691   69.336  324.230       489.46
  56.221   27.242   27.592       488.06
 170.383   74.060  134.876       488.06
  31.301   32.899   42.995       488.06
 148.432  147.119   84.537       486.65
  87.322   16.066  313.967       486.65
 152.573  136.298  346.614       485.25
 280.731   24.615   33.667       483.84
 319.655   36.774   51.118       483.84
 183.313  140.775  120.138       483.84
 151.856   35.623    6.104       483.84
 165.004   21.945   19.369       482.43
 212.918  131.833  332.583       482.43
  11.273   62.056   38.668       482.43
 188.970  159.164   28.530       481.03
 163.009   56.051  149.592       481.03
 177.041   96.477   90.380       481.03
 181.706   22.411    9.248       481.03
 336.278  148.747  220.289       478.21
   3.201   36.541   24.981       478.21
 183.570   97.060  340.815       476.81
 183.651  138.565  303.003       476.81
   5.058   92.229  213.487       475.40
 146.609   25.981  174.675       475.40
 155.417  142.193   94.952       473.99
 163.434  135.576  330.766       473.99
  23.875   35.833   28.952       472.59
   2.757  123.477  237.006       472.59
 165.480  125.750  104.802       472.59
 314.164   19.237   79.979       471.18
   3.194  121.543  231.625       471.18
 356.279   29.564   26.906       471.18
 350.273  144.179  206.552       469.77
 190.688  127.443   96.701       469.77
 182.223  150.108  355.726       469.77
  17.132   46.494   31.970       468.37
  13.243  120.060  206.422       468.37
  70.133  142.823  252.149       468.37
 204.604   44.055  351.068       468.37
   7.889  139.147  234.390       468.37
 171.863  130.321  111.574       468.37
  11.248  144.514  244.891       468.37
  76.500  149.056   35.242       468.37
  60.116  157.741  207.701       466.96
  50.455  139.779  199.144       466.96
 183.247  135.375  102.908       465.55
 210.912  128.249  345.466       465.55
 350.689   44.475   47.070       465.55
 356.210  106.815   42.230       465.55
  23.938  150.512  253.306       465.55
 353.226  125.713  228.005       465.55
 164.979  134.500  109.100       465.55
 183.051  126.878  356.093       464.15
 176.128   45.579  131.948       464.15
 325.597   43.982   48.741       464.15
  40.473  139.795  245.297       464.15
  81.951   35.226  336.302       464.15
 337.635  150.280  200.024       464.15
   7.769   84.377   79.558       464.15
 117.011  143.564  242.418       464.15
 237.535  137.566  347.964       464.15
 342.345   38.127   77.582       462.74
  47.749   36.925   24.895       462.74
   4.856  142.811  245.198       462.74
   9.342   46.863   33.645       462.74
 195.223  156.506  349.589       462.74
 313.353  148.741  156.658       462.74
 190.799  131.657  321.741       461.33
 352.706  113.601  250.297       461.33
   2.360   72.926   54.029       461.33
 131.117   85.889  151.173       459.93
  12.970  110.672  262.934       458.52
 357.699   54.764   44.956       458.52
   6.505   63.349   52.092       458.52
   5.095  134.584  212.082       457.12
 337.056  142.581  257.631       457.12
 117.923   23.982   60.038       457.12
 327.121   40.690  260.962       455.71
 340.207   56.519   35.100       455.71
 358.078   13.997   49.018       455.71
 197.997  159.608   28.393       455.71
 336.323   49.480   39.714       454.30
 143.364  148.558  118.899       454.30
   7.569   72.988  212.788       454.30
 357.096   94.062  245.982       452.90
  94.592   33.227  246.737       452.90
   2.585  129.577  244.970       451.49
 195.251  145.591   25.799       451.49
   9.740   94.422   38.052       451.49
 179.402   90.206  145.873       451.49
   5.552  124.904  236.031       451.49
 348.028   21.358   33.735       451.49
 125.296    9.843  290.494       450.08
 248.892  153.304   33.966       450.08
 349.128   38.238   36.095       450.08
 186.229  100.198  145.286       450.08
 185.547   95.025  105.121       450.08
   0.362   77.609   35.360       448.68
 201.383  129.731  145.894       447.27
 217.552  139.568  149.540       447.27
   2.822  148.835  243.209       445.86
 283.436   22.416  112.759       445.86
 191.547   63.376  346.282       445.86
 188.690   57.775  163.765       444.46
 315.544   28.786   99.366       444.46
 328.747   57.229   25.360       443.05
 160.488  103.714  332.699       443.05
 188.773  160.947  155.815       443.05
 177.779  143.071  346.608       443.05
   3.849   63.787  225.118       441.64
   9.163  141.944  214.489       441.64
 344.195  134.119  225.630       441.64
 133.184   32.749   69.209       441.64
 315.389  148.688  189.900       441.64
 347.998  134.178  220.451       441.64
 171.084   81.514  333.473       440.24
  11.837  102.910  260.193       440.24
 190.034   62.318  336.167       438.83
 184.662   49.355  152.472       438.83
 176.108  147.410  349.749       438.83
  20.360   36.788  357.162       438.83
  12.000  160.349  210.471       438.83
 162.214   83.562  153.398       438.83
  19.696   31.798   23.110       437.42
  33.705   25.379   26.616       437.42
   3.888   72.324  237.166       437.42
 169.275  118.812  314.830       437.42
 177.919  142.481  344.073       437.42
 344.812   60.647   57.906       436.02
   3.629   26.044   16.391       436.02
 180.719  123.530  118.281       436.02
 109.535   18.908  258.772       436.02
 211.929   44.842  337.165       436.02
 198.210   31.697  323.488       436.02
   2.686  132.561  194.317       434.61
  38.221   52.935   22.365       434.61
 352.004  144.722  196.139       434.61
  10.088  161.738  202.644       434.61
 337.567  119.023  208.130       434.61
   6.215   12.301   59.256       431.80
 344.612  155.750  218.446       431.80
 334.191   52.080   62.248       431.80
 164.105   99.081  166.635       431.80
   1.998   35.417   35.013       430.39
 344.396  155.516  227.274       430.39
  24.957   27.350  351.972       430.39
  33.472  150.848  295.671       428.98
 193.063   49.758  328.640       428.98
 246.463  150.651  159.765       428.98
 284.641    2.912   75.972       427.58
  11.383   19.146   33.292       427.58
 129.161   25.093  184.199       426.17
 187.829  147.347  137.933       426.17
 340.913  143.327  151.061       426.17
 222.930   37.315  353.143       426.17
 358.706   93.931   90.816       426.17
 145.714  147.250   80.464       426.17
 350.532  116.952  222.254       424.77
   3.529   92.587   28.402       423.36
 153.154  154.192   89.533       423.36
 349.029  125.585  211.748       421.95
 214.822  149.105  352.990       421.95
   3.441   30.369   42.963       420.55
 353.607   33.586   48.471       420.55
   6.028  103.839  221.481       420.55
 169.951   53.802  351.914       420.55
 166.238  142.591   89.085       420.55
  22.736  142.462  208.721       420.55
 175.226   70.853  329.282       420.55
 335.200  141.062  220.139       419.14
  54.589   27.054  336.221       419.14
 346.845  144.373  245.746       419.14
 312.659   23.875  250.764       419.14
 334.799  147.315  199.177       419.14
  17.845   84.977  255.669       417.73
   0.400   51.890   41.577       417.73
 143.734  157.709  348.196       417.73
 164.255  155.975  115.279       417.73
 354.600  115.780  223.356       417.73
 209.265  134.538  151.300       416.33
   2.176  139.066  164.751       416.33
 336.247   48.449   71.111       416.33
 313.501  159.299  172.991       414.92
 159.987  134.843   31.950       413.51
   6.249   92.012  229.725       413.51
 336.369  129.890  251.135       413.51
   5.459  133.723  227.105       413.51
  32.174  143.898  215.115       412.11
 336.735  133.062  218.398       412.11
  24.565   27.455   14.088       412.11
   4.707   36.422   34.980       410.70
 356.867   47.287   40.875       410.70
 348.507   94.573   76.874       410.70
   5.519  133.892  218.856       410.70
 246.870  155.734  108.302       409.29
 342.831   47.717  244.159       409.29
 176.421   92.435  322.825       409.29
 178.318  152.616  322.213       409.29
 345.974   45.690   77.128       407.89
 174.023  113.792  330.226       407.89
 350.774  112.198   33.302       407.89
 265.503  145.685   28.284       407.89
  13.673  113.906  245.256       406.48
 335.216  136.370  221.720       406.48
 239.750   19.382  104.470       406.48
  19.092   45.019   27.496       405.07
   0.228   52.486   46.431       405.07
   8.010   47.102   39.635       403.67
 332.748   40.867   74.887       403.67
 275.322   29.812  330.656       403.67
 356.508  149.658  248.720       403.67
 359.577  149.203  272.337       403.67
  24.930  146.362  221.975       403.67
 358.511  151.172  206.243       402.26
 202.273  151.271   97.922       402.26
 234.102  145.557  352.323       402.26
  64.034   23.060  354.822       400.85
   7.791   77.928   40.026       400.85
 110.159  143.644  137.963       400.85
 356.471   47.810   43.936       400.85
 173.891   45.639  343.607       400.85
   4.076  150.676  210.366       400.85
 180.160   93.661  333.985       400.85
 336.751  115.430  228.205       399.45
 353.898   60.941   45.540       399.45
 161.772   34.166  163.618       399.45
 177.371  137.875  352.948       399.45
  15.684  124.228  215.611       398.04
 148.726  165.128   31.940       398.04
 349.607  143.316  218.655       398.04
 182.722   82.282  147.047       396.87
 218.972  137.884   43.189       396.64
 345.290   84.866  262.840       396.64
 358.671   89.285  259.893       396.64
 130.136  174.292  324.777       396.64
 358.757   47.876   63.079       396.64
   0.146  145.283  221.419       395.23
 163.042  164.298  358.726       395.23
  36.003  145.037  257.008       395.23
   1.818   90.770   28.700       395.23
 136.017  122.877  131.162       395.23
 107.357   53.472  163.679       393.82
  83.800   28.579  336.666       393.82
  18.486   73.435   61.900       393.82
 352.000  134.613  226.671       392.42
  16.528   83.315   74.014       392.42
 351.473   91.479  222.771       392.42
 186.824  145.484   18.752       391.01
  16.357  129.990  253.543       391.01
 163.246  141.653  333.386       391.01
   1.471   87.191   80.518       391.01
 345.869  138.600  213.784       389.60
 344.746  157.484  226.553       389.60
   3.069   45.255   49.700       389.60
 303.783   38.178   52.624       389.60
 114.091   24.496  166.567       388.20
   1.577  135.312  209.078       388.20
 193.825   80.315  342.702       388.20
 116.459  149.396   53.296       388.20
 194.924   96.789  321.931       388.20
 207.557   26.020  249.901       388.20
 348.423   88.862  226.567       386.79
 201.424  148.469    7.282       386.79
 163.971   25.854   28.146       386.79
 342.623   54.835   70.612       386.79
 355.478   65.227   61.974       385.38
 345.742   75.682   52.356       385.38
   2.859  162.335  225.435       385.38
 352.973   54.552   48.048       383.98
 357.010   88.413  213.112       383.98
 200.369   93.142  308.491       382.57
 165.488  114.900  169.876       381.16
 297.993   41.241   20.618       381.16
 174.171  117.193  126.328       381.16
   9.552  142.859  210.831       381.16
 353.353  142.228  221.227       379.76
 199.510  143.939   28.640       379.76
  64.327  152.401  291.395       379.76
   9.994  116.546  238.171       379.76
 346.669  107.511  210.038       379.76
 350.377   96.850  256.094       378.35
 245.423   23.896  292.703       378.35
 173.700   32.897   44.585       378.35
 207.465   29.132  327.580       378.35
   2.681  136.495  239.502       378.35
  59.777   42.719  216.717       376.94
 277.385  157.092  189.243       376.94
 338.594   33.898   52.679       376.94
 172.984  101.299   97.633       376.94
  56.933   26.811  321.459       376.94
 186.658   55.091  157.269       375.54
 343.311  127.134  218.674       375.54
 173.332   22.073  306.021       375.54
 195.864  143.321  101.569       375.54
 328.244   22.512   74.216       375.54
 144.670  131.804   79.366       374.13
 347.212  143.501  225.670       374.13
  25.951  137.534  246.199       374.13
 175.829   80.821  339.111       374.13
 224.882   60.568  145.321       372.72
 355.634  107.668  252.342       372.72
 344.126  110.026  194.118       372.72
 183.931  128.765  357.677       372.72
 350.771  118.572  236.141       371.32
 170.477   74.535  151.728       371.32
  14.157  103.137   81.447       371.32
 345.566  143.268  226.132       371.32
 308.271   16.436  100.876       371.32
   6.956  118.968  219.383       369.91
 356.070  136.314  221.610       369.91
 359.839   37.470   49.752       368.51
  50.523  146.571  278.232       368.51
   3.945   15.326   30.577       368.51
 167.453   70.135  346.379       368.51
 353.689   65.983   10.708       368.51
  14.712   18.811   38.810       368.51
 343.053  128.132  226.365       367.10
  32.584   34.080   20.346       367.10
 173.324   95.404  339.334       367.10
 347.371  107.152  251.199       367.10
 309.153  149.040  200.825       365.69
 156.938  142.634  338.284       365.69
 167.350  155.254  297.577       365.69
 225.317   34.597   89.908       365.69
 170.737  130.265  161.785       365.69
 342.200  138.297  261.126       365.69
 356.389   92.888   82.903       365.69
 176.976   29.505  157.294       365.69
 356.349   98.137   49.742       364.29
 344.957   43.379   38.672       364.29
 187.173   39.043  132.573       364.29
  19.914  128.449  269.672       364.29
 348.275   94.416  248.413       364.29
 321.722  145.409  242.810       362.88
 174.888  101.664  106.592       362.88
 332.539  129.623  185.827       362.88
 353.225   86.483   84.640       361.47
  22.528   28.093   46.092       361.47
  18.607  125.446  262.716       361.47
 215.852  145.715  348.779       360.07
 196.178  117.419  128.864       360.07
 285.233   36.286  287.106       360.07
 173.189   86.898  321.444       360.07
   0.899  127.425  181.919       360.07
 157.917   34.932  252.312       358.66
 337.753  144.255  221.561       358.66
 332.119  129.977  223.534       358.66
   1.049   91.084  220.937       358.66
  25.844  156.711  235.454       357.25
 143.622  150.914   23.061       357.25
  10.500  142.764  249.139       357.25
 150.529   26.525  168.076       357.25
 172.772  136.040   84.667       355.85
 356.699  101.194   48.099       355.85
  43.563  147.106  312.517       355.85
  13.741   38.059   39.513       355.85
 358.433   19.716    6.186       355.85
   1.547  120.610  199.277       354.44
 346.914  151.889  217.253       354.44
 347.067   42.634   45.518       354.44
  45.619   22.982    0.455       353.03
  10.597   46.131   50.827       353.03
   9.446  138.002  208.307       353.03
 338.128   60.891  255.018       353.03
 305.343  146.440  230.649       351.63
 214.381   41.947  327.615       351.63
  33.571  156.505  296.354       351.63
 165.858   42.132  342.223       351.63
  20.553   86.667  255.447       351.63
 333.519  157.182  199.680       351.63
 109.612  156.046  236.460       350.22
 191.465   30.106  142.809       350.22
 171.083  138.001  331.555       350.22
 291.627   32.839   73.412       350.22
   1.340   35.362   65.586       350.22
 166.892  119.710  329.325       350.22
 333.069   47.960   42.135       348.81
  14.430   13.045   55.654       348.81
   6.137   89.045  221.835       347.41
 200.633   37.102  351.198       347.41
 135.838  165.055  241.295       347.41
 343.008  133.539  223.131       346.00
 310.859   30.199   61.540       346.00
 188.990   83.533  141.235       346.00
 280.135  142.012  179.819       346.00
 357.899   78.532   68.399       346.00
 183.799  139.590  340.032       346.00
   1.897  102.409  210.873       346.00
 176.355   84.942  335.245       346.00
 181.192  113.371  333.915       346.00
 347.355  124.338  230.412       346.00
 103.170  138.338  286.101       344.59
 342.577   66.723  263.153       344.59
 352.771  146.394  260.183       344.59
  10.640  126.165  216.129       344.59
   8.638   51.686   51.867       344.59
 185.722  151.176  340.710       344.59
 359.797   34.354   46.986       344.59
  14.250   38.095   18.070       343.19
 353.406  135.033  238.436       343.19
 352.791   90.130   55.560       343.19
 160.634   99.521  147.505       343.19
 231.248   43.086  266.866       341.78
 167.842  145.746  340.138       341.78
 204.626   43.434  310.546       341.78
  11.577   94.544   39.368       341.78
 351.214  154.692  261.981       340.37
 176.895  140.056  344.694       338.97
 142.175   34.543  180.483       338.97
 176.956   98.133  142.595       338.97
 337.210   20.188   81.553       338.97
 235.845  150.932  143.174       337.56
 166.893   37.682  278.253       337.56
   7.653   47.715   67.436       337.56
 163.495   71.789  345.308       337.56
  25.122   30.388   37.834       337.56
 192.621  140.424  322.510       336.16
 158.713  133.324  343.787       336.16
 167.807   62.733   53.990       336.16
 353.597  131.669  232.803       336.16
  25.942   95.625  108.068       334.75
  16.636   39.413   38.924       334.75
 180.952   37.966  140.935       334.75
 178.138   94.450  340.095       334.75
  75.482   44.521    4.314       334.75
 276.287  145.212  159.823       333.34
 323.937   27.962   61.887       333.34
 191.250   85.611  310.735       333.34
 345.224   36.131   65.002       333.34
 333.331  146.025  219.025       333.34
  17.021  130.976  250.818       333.34
   1.329   44.834   46.267       333.34
   8.739   77.569  213.737       331.94
  15.317  150.082  261.497       331.94
 309.605   12.574   85.748       330.53
  11.414   36.459   57.718       330.53
 353.224  136.551  225.103       329.12
 189.560  125.968  347.634       329.12
 188.282   86.766  154.180       329.12
 232.445   27.174   14.018       329.12
 177.289   68.025  152.799       329.12
 182.699  101.104   74.646       329.12
 174.708   94.715  330.532       327.72
 190.432   92.072  163.399       327.72
 190.807   53.419  285.256       327.72
 147.991  147.889  341.171       327.72
  19.170  150.059  185.431       327.72
 239.291  147.686  101.788       327.72
  59.292  153.329  231.254       327.72
 163.129  151.763  327.189       326.31
 354.146  145.367  203.119       326.31
 316.051   22.147   48.755       326.31
 174.635  110.261  126.042       324.90
   5.105   48.793   43.046       324.90
 179.489  123.525  125.999       324.90
 358.588  122.038  249.338       324.90
  57.541  141.245  242.640       324.90
  44.543  158.586  262.654       324.90
 164.631   63.277    0.863       324.90
 156.068  141.107  327.020       323.50
 189.980   78.112  164.133       323.50
 168.547  128.160   95.771       323.50
 175.593   96.636  322.845       323.50
 157.831   26.109  290.708       323.50
 350.702  132.077  221.905       323.50
 176.152  145.151  325.794       323.50
 346.721  110.032   41.378       322.09
   2.922   36.465   76.729       322.09
  18.838  169.630  290.475       322.09
 339.170   37.321   49.535       320.68
  18.706   44.567   60.173       320.68
  69.864   40.651  213.848       320.68
 186.052   96.053  144.910       320.68
 342.282  145.232  143.881       320.68
  19.832   33.009   44.580       320.68
   6.897  117.554  214.534       320.68
 344.758  158.925   92.187       319.28
 178.729  139.350  344.659       319.28
 345.360  160.233  230.681       319.28
  17.580  128.491  244.456       319.28
 326.339  141.874  210.746       319.28
  15.419  142.238  220.220       319.28
 345.652  116.514  244.390       319.28
  17.394   27.679   36.554       319.28
 113.972  155.657  299.678       318.34
 356.431  142.776  235.976       317.87
 202.764  139.949   21.258       317.87
 356.973  133.874  251.443       317.87
 293.345  136.640  195.729       317.87
  11.439  100.223  215.170       317.87
  13.046   65.016   54.632       317.87
 231.791   38.322  233.492       316.46
  13.783  139.371  224.864       316.46
 216.314   92.063  340.969       316.46
   4.248   50.203   67.552       316.46
 211.819  157.966   29.627       316.46
  11.973  113.414  248.788       316.46
 355.055   91.279  207.762       315.06
 190.152   82.423  334.066       315.06
 354.864   93.746  219.414       315.06
 297.362   21.119  105.667       315.06
 254.574  134.349  165.392       315.06
 345.775   42.423   36.489       313.65
   3.181   38.630   56.173       313.65
 359.553  152.637  237.233       313.65
 334.582  135.625  240.753       313.65
 359.063   20.106   19.741       313.65
 165.871   90.888  341.324       313.65
   9.331   38.981   38.554       313.65
 350.985  128.264  206.228       313.65
 183.120   96.938  156.326       312.24
  44.144  130.245  254.543       312.24
 159.829  140.906  113.824       312.24
 207.385   54.577  145.553       312.24
 164.838  157.157   37.224       312.24
   0.820  149.160  252.824       310.84
 149.360   77.754  136.165       310.84
 154.519   36.934  258.249       309.43
 333.357  140.926  183.941       309.43
 165.676   27.714  297.808       309.43
  18.354  106.843  226.038       309.43
 170.095  111.608  336.639       309.43
 351.114  105.257  209.436       309.43
  17.166  132.116  159.575       309.43
  62.257   46.526   49.171       308.03
 344.306  123.309  213.038       308.03
 193.499  107.297  141.850       308.03
 166.190   76.781  358.132       308.03
   5.470   24.466   55.398       308.03
  18.024  105.728  255.788       308.03
 155.326  123.344   93.307       308.03
   8.953  100.596  256.312       308.03
  12.657   37.546   13.981       308.03
  67.148  146.289  220.666       306.62
 351.708   93.157   44.253       306.62
  93.084   29.712  264.237       306.62
 176.375   23.522  288.109       306.62
 155.215  150.664  340.467       306.62
  11.384   89.958   78.627       306.62
 162.293  150.824   94.387       306.62
 180.537  135.864  333.852       306.62
 353.300  121.842  251.789       306.62
 355.968  133.110  228.119       306.62
 342.419   53.265   70.608       306.62
 337.942   37.215   82.231       306.62
  78.618  149.954  271.463       306.62
 358.732  167.089  188.575       305.21
 340.034   72.317   51.075       305.21
 167.090   48.554  323.044       305.21
 202.989  147.388  346.770       305.21
  64.771   22.637  356.597       305.21
 353.707   33.922   69.867       305.21
 185.387  150.205  322.567       305.21
 139.888   45.027  273.038       305.21
 169.431   41.500  315.857       305.21
 183.797  112.187  171.377       305.21
 179.771  113.078  304.170       303.81
 352.112  111.410  208.166       303.81
   9.152   82.065  248.635       303.81
 176.180  138.433  339.484       303.81
   8.959   52.228   59.321       303.81
 353.459   21.806   64.308       303.81
  37.497   30.559   10.459       303.81
 348.466  140.125  237.813       302.40
 335.291   65.397  264.065       302.40
 184.096   83.416  291.448       302.40
 356.445   14.176   22.981       302.40
 338.462   43.972   70.487       302.40
 136.663   32.957   28.848       302.40
 140.439  153.968   94.629       300.99
 341.902   50.350   73.366       300.99
 344.436   69.637   32.281       300.99
  28.772  158.903  219.296       300.99
 157.762   46.198  284.977       300.99
  98.283   45.198  214.511       300.99
 333.105   46.808   55.116       300.99
 185.559   90.361  148.292       299.59
 154.123   94.367   89.617       299.59
 356.746  141.345  186.183       299.59
 172.372   91.881  328.367       299.59
 173.272  133.440  345.408       299.59
 197.246  129.647  338.079       299.59
 291.004   47.931  189.306       299.59
 319.693   33.361   42.201       299.59
 329.274  149.320  166.401       299.59
 343.562    6.951   71.789       298.18
  15.414   93.851   73.665       298.18
  26.233   43.747   23.897       298.18
  20.845  139.779  186.765       298.18
  76.351   21.647    1.055       298.18
 351.334   79.778   36.500       296.77
  16.795   30.975   13.957       296.77
  86.329  179.041  284.980       296.77
 355.188   57.820   71.025       296.77
  11.655  134.135  207.573       296.77
 278.752    8.167  179.230       296.77
 124.545  150.111  263.420       296.77
 156.848  125.650  291.931       296.77
 342.207  141.188  203.008       295.37
 348.075   88.177  216.723       295.37
 232.931  145.164  324.094       295.37
  14.921  156.167  177.329       295.37
 128.398  151.389   10.374       295.37
  17.582   52.636   38.167       293.96
  31.620  151.084  219.999       293.96
   2.257  143.727  246.869       293.96
   8.345   41.578   21.748       293.96
  17.979   42.701   52.245       293.96
 158.945   41.698  326.845       293.96
 343.539  110.026  257.333       292.55
  19.610   26.581   62.147       292.55
  10.032  159.271  182.387       292.55
   5.794   49.239   58.294       292.55
 164.006  125.038  164.714       292.55
 354.783  156.300  210.096       291.15
 177.399   90.477  336.031       291.15
 358.727  150.871  266.388       291.15
 313.860  155.431  155.832       291.15
  18.093   53.390   35.737       291.15
   4.345  132.416  259.021       291.15
 171.850   85.777  327.042       291.15
 359.884  128.086  234.535       289.74
  24.665  141.321  162.907       289.74
  68.538  166.706  180.144       289.74
   4.931  101.660  219.115       289.74
 193.857   50.757  294.823       289.74
 342.316   97.341  252.868       289.74
 162.078   31.546  164.542       289.74
  34.242   47.548   49.456       289.74
 168.841   60.825  167.029       289.74
   0.962  126.671  259.677       289.74
 356.370  117.743  204.873       288.33
 313.317   19.932   53.277       288.33
  20.147   31.373   55.227       288.33
 175.029  119.246  128.086       288.33
 358.420  125.014  248.922       288.33
 307.315  159.277  202.618       288.33
 358.853   86.112   49.220       288.33
  18.492   52.783   37.708       288.33
 188.870   31.077  145.428       286.93
 187.870   67.899  327.051       286.93
 180.953  157.499  112.764       286.93
 131.123   11.234  182.390       286.93
  49.450  167.425  254.426       285.52
  13.779   37.320   48.834       285.52
   1.605  132.576  241.536       285.52
  14.959  119.048  253.018       285.52
 302.645   41.348  254.498       285.52
  61.305  160.628  247.050       284.11
 157.103  132.821  130.611       284.11
 257.488  155.522  174.700       284.11
  22.815   49.484   56.795       284.11
  85.365   30.146    2.610       284.11
   5.405  124.358  249.145       284.11
 353.414  141.278  207.956       284.11
   3.807  106.246  209.862       282.71
  33.513  146.942  276.746       282.71
 221.078   45.644  296.925       282.71
 358.826   40.849   45.341       282.71
  13.143  144.140  229.586       282.71
 227.241   29.377  313.752       282.71
 159.676  112.161    1.173       282.71
 165.123  114.511  125.362       282.71
 136.560   33.940  176.478       282.71
 237.588  162.232  159.500       282.71
 349.121  113.639   37.828       281.30
   0.764  126.834  224.432       281.30
 222.538   20.238  323.326       281.30
   4.799  132.407  272.359       281.30
 179.818   30.717  149.594       281.30
 349.258  140.893  209.488       281.30
 342.688  112.128  245.169       281.30
  69.203   22.843  340.054       281.30
 179.249  102.727  334.920       279.90
 182.145   78.464  143.474       279.90
 358.461  103.462  228.846       279.90
  33.033  150.713  295.291       279.90
  14.161   39.961   37.916       279.90
 238.112  154.540   87.650       279.90
  11.978   59.301   36.673       278.49
  18.025  129.907  258.961       278.49
 340.231  131.565  237.084       278.49
  71.442   12.153    4.782       278.49
 354.232  145.091  230.673       278.49
 169.553   85.435  325.999       277.08
   3.260  133.514  234.487       277.08
  75.811   32.442    4.567       277.08
 357.270  118.028  229.509       277.08
 204.107  163.456  106.815       277.08
   5.763   40.736   42.398       277.08
 351.634  103.127  240.333       277.08
   0.833   51.918   36.872       275.68
 359.278  140.049  221.123       275.68
 172.890   87.428  329.304       275.68
 149.473   30.615  314.942       275.68
   0.703   49.367  220.977       275.68
 197.650  135.631  337.122       274.27
 347.480  109.058  211.495       274.27
 146.561    5.801   32.227       274.27
 354.716   80.294   40.204       274.27
  31.814  137.089  262.825       274.27
 267.459   40.319  279.761       274.27
 352.377  140.677  243.832       274.27
  19.214   25.584   21.298       272.86
  38.182   63.680   37.514       272.86
 211.068  131.416  339.793       272.86
 164.797   10.957  102.782       272.86
   8.674  133.244  187.730       272.86
 350.326   89.938  210.717       272.86
 196.021   90.267  153.432       272.86
   3.971  151.474  205.552       272.86
 183.044  119.431  139.353       272.86
 339.810   35.447   81.932       272.86
   7.274   59.629   51.970       272.86
   0.445   81.167   68.866       272.86
 313.256   30.323   47.302       271.46
 314.561   24.285  104.556       271.46
 359.377  139.886  210.315       271.46
  24.905   41.722   18.631       271.46
 154.182  147.614  330.015       271.46
 164.723   70.014  356.801       270.05
 193.869  127.364   96.219       270.05
  91.623  160.178  275.669       270.05
 356.933  138.707  252.171       270.05
 155.751  147.212  341.974       270.05
   6.110   22.420   18.183       270.05
 321.467  154.329  177.617       270.05
 341.655  126.330  217.782       270.05
 311.097  149.916  212.479       270.05
 195.772   25.870  328.860       270.05
 229.372   31.066   88.714       268.64
 329.708  128.975  242.902       268.64
 165.600  120.595  133.089       268.64
 356.472  137.376  225.070       268.64
  34.301  153.880  225.268       268.64
 359.548  137.820  222.714       268.64
 140.365   13.750  248.070       267.24
 162.306  141.239  335.301       267.24
 356.123  105.941  195.407       267.24
 339.396  169.097  179.292       267.24
 186.216  130.982  124.932       267.24
 184.109   56.803  162.169       267.24
 344.721  136.676  217.131       267.24
 192.340   54.705  154.076       267.24
 323.288   32.292  100.548       267.24
 213.447  148.902  347.604       267.24
 237.365   20.805  309.057       265.83
 305.100   27.216   75.452       265.83
   0.984  110.650  215.818       265.83
  19.898  147.486  228.452       265.83
 101.332    6.762  272.925       265.83
 208.169  147.271   25.499       265.83
 353.669   98.721  252.880       265.83
 343.033  140.270  224.491       265.83
 180.861   72.760  177.905       265.83
  44.656   29.555   26.014       265.83
 162.151  129.574  341.846       264.42
 270.621  158.836  170.151       264.42
 184.787  152.217  338.276       264.42
  10.324  134.280  252.193       264.42
  57.361  151.543  263.560       264.42
 176.914   67.546  155.294       264.42
 199.392   78.097  147.858       264.42
 157.111  145.008  284.679       263.02
   8.399  161.328  218.227       263.02
 142.426  150.624   81.979       263.02
 157.464  155.500  255.332       263.02
 349.558  128.670  213.927       263.02
 204.122   25.177   87.857       263.02
 184.057   87.758  161.909       263.02
  19.998   33.416   36.069       263.02
   2.520  155.607  269.756       263.02
 206.507  139.445   28.197       263.02
 157.359   23.361   22.105       263.02
 257.452  160.558   31.564       263.02
 350.140  144.137  218.955       261.61
 213.179  147.390  299.013       261.61
 186.569   96.771  328.704       261.61
 188.012   36.995  290.413       261.61
 166.391  135.212  334.949       260.67
   0.282   93.540  223.831       260.20
  72.310  144.268  277.455       260.20
 155.736   92.974  155.317       260.20
  53.748   28.916   23.402       260.20
 177.743   83.972  138.206       260.20
 218.446  138.579  142.618       260.20
 309.023  126.816  232.149       258.80
   4.380  130.640  162.110       258.80
   8.937   67.658  218.512       258.80
 106.492   35.803  228.615       258.80
 164.528   62.660  156.524       258.80
 177.486  118.698  118.509       258.80
  21.702   84.459  250.228       258.80
 177.763   95.255   82.646       258.80
   8.975   91.788  208.407       257.39
 357.497  120.010  257.860       257.39
 354.674   34.726   67.550       257.39
   4.242  141.323  271.559       257.39
 352.416  111.926  234.725       257.39
 149.496  148.232  333.961       257.39
 103.155  172.231  293.756       257.39
  13.563  131.510  212.138       255.98
  25.336   31.011   42.730       255.98
 175.534   94.077  329.722       255.98
 196.830   99.480  142.448       255.98
   3.395  151.467  221.538       255.98
 171.392  139.513  113.233       255.98
 348.039  131.159  222.949       255.98
 160.056   43.672  348.861       255.98
 170.008   93.649  165.214       255.98
 353.971   95.671  206.370       255.98
 353.845   66.110   54.885       254.58
   2.660   41.517   70.529       254.58
 218.132   56.122  293.584       254.58
  11.568   43.963   32.236       254.58
  79.087  159.047  337.933       254.58
  10.363   86.331   44.125       254.58
 328.464   34.253   70.126       254.58
 188.420  147.954  356.286       254.58
 170.585  139.503  148.059       254.58
 193.771  102.475  168.536       254.58
 344.751  147.200  180.975       253.17
 359.269  159.872  136.795       253.17
  20.366  165.141  266.049       253.17
 190.773   95.719  145.349       253.17
  16.661   41.161   35.053       253.17
  29.157   40.606    6.607       253.17
 117.151  142.170  127.162       251.76
  24.552   41.003   32.427       251.76
 354.043  106.749  238.444       251.76
 165.624  138.092  331.860       251.76
 148.862  148.151  281.909       251.76
 340.825  125.197  203.778       251.76
   3.460   89.247  229.668       251.76
 183.272   89.754  158.417       251.76
 178.805  103.938  153.090       251.76
 180.419  109.022  146.319       251.76
 216.886   29.390  313.813       251.76
 359.806  128.101  219.937       251.76
 356.341  135.352  262.275       251.76
 140.746  145.123   80.049       250.36
  47.628  165.758  273.429       250.36
 152.228  150.461  337.904       250.36
  11.512   36.066   53.376       250.36
 353.997  133.264  255.144       250.36
  15.839   34.618   39.722       250.36
 183.114   96.070  308.845       248.95
  87.298  157.293  195.105       248.95
 166.747   33.636  288.301       248.95
  65.482  143.541  259.129       248.95
  17.527  146.096  221.937       248.95
 207.086   12.334  201.629       248.95
 321.840  145.976  248.494       248.95
  38.399  143.803  222.582       248.95
 214.914  107.416  332.981       248.95
 353.069  126.482  257.967       248.95
 330.114  146.502  172.312       248.95
  18.771   35.350   33.985       248.95
 166.683  138.215   95.327       248.95
 356.470  139.866  249.781       247.55
  31.885   67.894   16.032       247.55
 334.400  144.228  157.799       247.55
  43.323   12.831   38.872       247.55
   2.638   65.236   66.703       247.55
 196.290  100.992  153.116       247.55
 164.089  136.165  329.505       247.55
 213.064  151.192   71.268       247.55
  10.789   50.414   40.880       247.55
 341.955  137.799  199.004       247.55
   6.466  119.113  245.480       247.55
 337.167   57.981  246.470       246.14
 162.846   77.979  323.438       246.14
 358.486   98.013  207.497       246.14
 186.554   86.252  328.421       246.14
 329.929   20.174  112.697       246.14
   4.044  145.107  243.977       246.14
  11.159  126.709  240.166       246.14
 356.151   92.327  202.361       246.14
 358.347  142.058  229.519       246.14
  60.650  142.233  289.853       246.14
 322.970   49.918   67.394       246.14
 160.267   73.322  154.087       244.73
 160.882   41.910  152.816       244.73
   5.329   38.055   34.175       244.73
 125.640  159.143   44.335       244.73
 341.826  144.858  157.084       244.73
 135.849   28.787  341.093       244.73
 335.987  155.035  217.547       244.73
 316.805   32.972   83.265       244.73
 176.428  147.560  101.480       243.33
 304.264   26.793   98.130       243.33
 358.019   51.598   44.231       243.33
 215.752   30.776  115.873       243.33
 176.506   93.255  311.319       243.33
   0.346   82.354  217.669       243.33
  57.996  162.828  259.839       243.33
  47.770  151.714  263.032       243.33
  16.046  135.656  232.231       243.33
  93.574  160.674  332.441       241.92
 321.767  146.387  202.058       241.92
 356.088  105.427   91.933       241.92
 319.363   29.900   40.786       241.92
 160.799   49.322  155.948       241.92
  36.571  143.029  217.261       241.92
  49.561  146.177  268.079       241.92
   2.440   63.628   33.910       241.92
 316.643  146.024  212.965       241.92
 159.435  162.120    3.971       241.92
 337.209  134.129  226.829       241.92
 331.124   21.235   35.771       241.92
 191.357   84.667  329.909       240.51
 145.770  168.125   67.708       240.51
 351.849   16.326   66.227       240.51
 152.503  142.351   90.766       240.51
 184.292  140.769  350.067       240.51
 307.857  151.205  136.530       240.51
   5.173  114.019  248.373       240.51
  33.866  162.230  228.870       240.51
 192.627  150.842   22.550       240.51
 282.884   14.592  119.131       240.51
  94.808   12.174  337.356       239.11
   5.448   77.952  221.714       239.11
 351.877  129.864  258.313       239.11
   4.359  143.564  255.050       239.11
 175.434  129.099  335.978       239.11
 165.543   86.738  338.609       239.11
   0.624   66.069   23.260       239.11
 211.574  142.244  130.231       239.11
 328.223  149.336  185.666       239.11
 193.998   31.273  329.063       239.11
  12.492  103.596  225.457       239.11
  30.415   40.570   45.261       239.11
 156.294   76.819  143.749       239.11
 190.357   85.259    5.225       239.11
 225.716  154.687   64.453       237.70
 349.158   51.839   41.324       237.70
  12.732  141.564  263.578       237.70
 333.964   26.844   18.717       237.70
 195.791  106.987  326.578       237.70
 167.481  116.846  343.332       237.70
  15.335   82.869  257.437       237.70
 357.997  103.221  263.684       237.70
 355.104  111.882  254.846       237.70
  13.126   42.818   78.937       237.70
 283.552   25.379  315.211       236.29
   8.606   36.278   36.988       236.29
 332.742   57.653  244.976       236.29
 192.436  140.496  320.630       236.29
 191.936   62.146  139.257       236.29
 190.483   88.342  104.199       236.29
 356.277   38.004   41.839       236.29
   7.549  149.678  252.351       236.29
 354.993  125.927  216.607       236.29
 210.991   38.285  315.796       236.29
  15.770   46.483   48.111       236.29
 181.235   83.977   91.397       236.29
   4.941  150.647  221.617       236.29
 193.513   94.815  343.677       236.29
 184.814   93.140  141.100       234.89
 342.446  142.183  251.213       234.89
 169.748  127.607    3.038       234.89
 137.049  149.467  104.779       233.48
 214.442   34.744  332.483       233.48
 174.967   48.120   58.619       233.48
 179.455   49.452   38.003       233.48
 354.599   75.779   23.589       233.48
 314.701   32.664   54.056       233.48
 325.688  137.445  224.136       233.48
 283.890  154.268   93.352       233.48
 173.428   94.038  332.442       233.48
 195.199   70.823  332.666       233.48
 339.796   28.416   42.365       233.48
 342.253   42.355  213.619       232.07
 180.556   48.545  334.023       232.07
 345.100  146.026  203.437       232.07
  24.470   10.278   41.232       232.07
 350.849   88.432   26.004       232.07
  90.234  162.752  344.138       232.07
   7.112   94.544  219.744       232.07
 167.649   93.580  333.082       232.07
 209.205   14.207   92.252       232.07
 168.030   39.397  151.700       232.07
  29.730  146.564  217.431       232.07
 163.503  163.724   91.388       232.07
 155.018  141.836   82.326       232.07
 265.549   33.091   92.329       230.67
 359.858   65.826   60.795       230.67
 139.434  155.185   88.047       230.67
  17.581  137.057  183.034       230.67
 178.830  147.113  304.763       230.67
 183.374   97.121  349.012       230.67
 134.496   16.447   51.472       230.67
 340.995   69.080   53.683       230.67
 346.794  135.487  199.564       230.67
 340.808  137.985  227.287       230.67
 175.797  111.012  160.547       230.67
 358.984   98.548   78.760       229.26
 351.407   48.377   54.846       229.26
   4.949  133.128  261.957       229.26
 209.781  147.320    0.902       229.26
 198.381   38.244  332.545       229.26
   3.699  119.312  223.159       229.26
 230.479   24.814   68.494       229.26
 354.057  140.300  231.974       229.26
 346.220   37.718   59.480       229.26
 344.006  132.313  219.388       229.26
 330.907   41.063   27.978       229.26
 346.236   55.943   73.256       229.26
 332.067   38.083   42.141       229.26
 149.781  159.409   69.870       227.85
 358.283   73.391  227.677       227.85
   4.570  145.345  200.649       227.85
 178.274   87.488  316.975       227.85
 144.076   53.402  320.457       227.85
 184.144  134.475  341.374       227.85
   9.796  114.076  257.272       226.45
   2.646   69.083  222.516       226.45
   1.614  131.820  240.462       226.45
 340.874   66.008   55.731       226.45
 358.066   33.414   57.350       226.45
  68.452  174.679  340.779       226.45
 167.884   26.062  355.112       226.45
 159.983   87.879  165.275       226.45
  55.027   34.003   11.991       226.45
   9.141   54.771  234.684       226.45
 182.253  122.731  113.319       226.45
 337.302   37.843   87.363       226.45
 352.820  143.221  198.518       225.04
 158.461  152.941   79.430       225.04
 164.544   62.996  141.553       225.04
   1.565  137.830  192.801       225.04
  10.295   94.803  220.236       225.04
  11.186  161.393  179.839       225.04
 307.789   35.912   85.987       225.04
 175.591   47.348   33.522       225.04
   5.095  106.516  248.605       225.04
  17.362  143.159  225.784       225.04
 245.352  146.999  169.282       225.04
 339.043  130.336  202.811       225.04
  25.045   33.083    9.390       225.04
 218.840   52.453   97.739       225.04
  22.176   36.163   40.247       225.04
 299.115   41.780   74.774       225.04
   6.219  144.151  271.160       223.63
 144.162   83.096  158.622       223.63
 358.192   94.833  233.814       223.63
   1.212  111.970  249.913       223.63
 173.916   11.528   97.467       223.63
 212.405  145.979  334.076       223.63
 216.329  136.425  323.611       223.63
 218.194   54.733  348.170       223.63
 165.711   50.340  154.321       223.63
 339.994   48.957   45.317       223.63
 349.019   94.257  210.338       223.63
 174.650  146.957   73.718       222.23
  53.591   37.016   51.180       222.23
  11.266   43.509   48.781       222.23
   2.318   89.630  236.094       222.23
 347.890   55.356   40.096       222.23
 324.539  134.499  227.546       222.23
  70.351  150.567  282.720       222.23
  10.965  153.970  224.607       222.23
   7.436   33.417   52.565       222.23
  64.303  177.825  330.172       222.23
 188.349   78.253  338.444       222.23
 154.694   86.581  124.428       222.23
 100.729  163.410    4.846       222.23
 239.746   22.230  145.430       222.23
 358.277   49.872   73.393       222.23
 329.750   21.399   83.382       222.23
 177.686  174.529   29.208       222.23
 337.249  147.292  227.158       220.82
 155.551  149.505   93.335       220.82
   5.299   76.362   49.600       220.82
 160.968  141.950  288.389       220.82
 348.610  146.853  224.305       220.82
  25.808  153.644  238.313       220.82
 167.413   83.563  331.860       219.42
 319.180  139.514  196.933       219.42
 116.182  169.977  258.195       219.42
  26.967  104.371  178.807       219.42
  13.096   88.897  247.393       219.42
   9.285   93.596   77.531       219.42
 312.668  148.745  189.134       219.42
 331.670  154.582  224.274       219.42
   2.389  130.091  221.216       219.42
 198.445   41.300   20.691       219.42
 182.190   86.613  157.529       219.42
  11.213   23.852   52.218       219.42
 154.449   66.712  153.129       218.01
 250.339   10.455  136.657       218.01
 355.124  115.644  223.437       218.01
 165.008   49.826  145.509       218.01
 209.647   38.447   99.077       218.01
 317.077   19.036   59.299       218.01
 332.219  149.442  222.180       218.01
 159.163  147.793   95.796       218.01
 175.414  130.940  104.275       218.01
 130.682  178.243  329.960       218.01
 340.511  141.580  214.759       216.60
 344.468   24.262   18.956       216.60
 190.019   49.302  353.966       216.60
 155.933   14.657  152.772       216.60
 182.697   79.873  149.834       216.60
 182.120  101.224  326.611       216.60
   7.558  104.827  210.367       216.60
 184.332   86.474  315.003       216.60
 140.521   30.635  347.614       216.60
  19.240   44.739   39.053       216.60
 311.354   39.261  265.097       216.60
   7.856  144.587  217.983       216.60
 334.803   65.020    5.138       216.60
 195.218  131.741  133.832       216.60
 326.316  135.726  217.415       216.60
  51.395   25.466  351.712       215.20
 168.165  131.543  283.187       215.20
 354.030   92.254  221.820       215.20
  61.310   14.253  183.940       215.20
 225.226  144.330  137.669       215.20
 351.478   46.236   28.039       215.20
 357.930   33.753   41.834       215.20
 179.144  142.275  133.670       215.20
  14.373   47.324   42.065       215.20
   9.432   83.927   66.244       215.20
 356.413  127.289  255.272       213.79
 224.702  152.596   51.054       213.79
 347.148   90.294  207.670       213.79
 350.760   98.127  209.380       212.38
   1.232   88.929  270.711       212.38
 327.478  136.243  202.123       212.38
  18.455  129.385  199.795       212.38
   3.807  135.868  246.715       212.38
 184.495  101.317  160.040       212.38
 198.135  133.943  102.062       212.38
 183.923   45.962  349.105       212.38
 346.015   28.287   42.638       212.38
 210.438  153.714  324.997       212.38
  48.360  171.056  271.002       212.38
 184.315   46.286  323.438       212.38
 316.985  150.925  185.640       210.98
 166.659  144.927   73.204       210.98
 349.920   27.208   35.068       210.98
 357.198   65.870   68.250       210.98
  67.579   36.599  332.660       210.98
 164.611   39.519  163.281       210.98
 295.107  146.113  205.876       210.98
   2.573   10.105  357.836       210.98
 156.967  133.435   99.472       209.57
 340.407   44.746  231.904       209.57
  12.897   44.107   26.439       209.57
 334.315   22.276   28.764       209.57
 180.660   95.619  125.109       209.57
 173.243    9.330  241.076       209.57
 124.843   46.037  195.109       209.57
  16.262   88.377  219.894       209.57
 134.913    7.339  162.599       209.57
 157.813  148.480   28.149       209.57
 356.100   55.949   15.616       208.16
 125.476  161.569   61.077       208.16
  42.730   43.354   40.746       208.16
 159.860   45.946  151.763       208.16
  16.593  137.511  217.578       208.16
 357.751   57.212   64.195       208.16
 199.706  138.914  122.092       208.16
 348.156   66.656   49.742       208.16
  73.142  173.027  268.744       206.76
 355.944   49.001   62.890       206.76
 352.463   79.665  259.881       206.76
 350.481   27.238   34.908       206.76
  32.186   41.247   41.668       206.76
 163.816   93.586  330.809       206.76
 180.960  122.429  347.119       206.76
 215.601  139.900  356.765       206.76
 313.199  122.750  218.947       206.76
  67.753   12.308   23.721       206.76
 348.728  143.170  207.975       206.76
 337.212  102.308  240.037       206.76
 157.784   69.061  308.159       206.76
 356.565  141.817  235.020       205.58
  44.514   37.942   42.843       205.35
 308.485   39.438   21.413       205.35
 347.859   86.912   28.761       205.35
  22.252  129.396  254.681       205.35
 196.002  142.514  159.452       205.35
 244.169  158.714  150.358       205.35
 345.250   66.611  260.045       205.35
 161.537  132.757  102.377       205.35
 353.321  129.142  194.629       205.35
 168.094   68.577  347.315       205.35
  25.556   35.112   36.141       205.35
   7.402   68.820   70.825       205.35
 200.221  119.642  103.325       203.94
 165.841   35.775  154.188       203.94
 178.190   28.291  114.506       203.94
 353.027  128.485  217.761       203.94
   5.950   36.374   67.123       203.94
   0.951  143.162  205.965       203.94
  16.709  139.892  235.379       203.94
 192.847   77.743  154.809       203.94
 190.963  154.400  355.550       202.54
  13.247  140.624  214.861       202.54
 189.865   93.263  162.707       202.54
   6.809  128.293  197.702       202.54
 344.657   50.605   35.582       202.54
   0.550   29.332   59.516       202.54
  37.404  119.090  244.832       202.54
  14.296  136.746  241.740       201.13
 341.410  151.559  254.252       201.13
  10.747   30.278   21.344       201.13
 358.219  142.481  205.156       201.13
 197.226   31.872  337.984       201.13
 197.762   85.197  328.967       201.13
 177.350   89.343  329.049       199.72
 357.218  104.100  250.513       199.72
 339.117   32.687   74.694       199.72
 306.290   16.066   46.949       199.72
 354.713  159.709  186.873       199.72
 179.720   16.586  354.413       199.72
 355.686  104.658  226.329       199.72
 346.350  145.849  152.890       199.72
 106.172  150.896   24.307       199.72
  31.691  164.996  235.343       199.72
 192.632  144.309  347.038       199.72
 181.530   32.032  228.308       199.72
 168.897   65.099  347.190       199.72
 169.194  137.956  331.790       198.32
 184.052   40.647  269.054       198.32
 334.625  143.651  248.858       198.32
  15.331  144.936  249.758       198.32
 162.177  130.797  342.774       198.32
 170.423  141.374   99.330       198.32
 332.598  153.822  195.055       196.91
 330.159  126.137  217.440       196.91
 347.267   91.170  244.729       196.91
 202.403  134.754  172.479       196.91
 181.410   81.118  154.208       196.91
 305.787   13.185  103.567       196.91
 109.421   36.782  167.793       196.91
 194.117  130.188   17.445       195.50
 270.930   26.814  226.675       195.50
  79.453    5.984  224.508       195.50
 143.097  162.658  325.323       195.50
 193.323   89.323  329.958       195.50
 166.785  153.196  102.457       195.50
 358.057   44.861   79.264       195.50
 123.743  150.143   86.830       195.50
   2.999  126.498  226.709       195.50
  30.598  154.051  258.873       194.10
 353.111   92.827  206.330       194.10
 350.242   86.692   76.397       194.10
 311.459  132.474  215.104       194.10
 126.774   32.383  252.317       194.10
 170.330  104.289  339.412       194.10
  55.319  155.587  234.642       194.10
 351.738  134.552  252.595       194.10
 320.985   84.913   26.004       194.10
 169.723   73.493  340.268       194.10
 215.353  137.549  335.500       192.69
 179.235  140.380   31.472       192.69
 351.774   53.339   34.423       192.69
  52.474   44.345   14.490       192.69
   2.750   98.335  214.768       192.69
  50.013   40.537  194.218       192.69
 350.960   88.055   60.053       192.69
 188.518  152.286  150.235       192.69
  23.360   94.059  212.470       192.69
 198.058  163.628   90.768       192.69
 186.168  119.771  103.573       192.69
 356.073   99.394   82.545       192.69
 357.237  113.277  253.188       192.69
 162.825  136.760  309.820       192.69
 179.088  131.614  116.562       191.29
 291.253  160.505   92.624       191.29
 154.415  134.410   85.737       191.29
 193.100   33.545  329.190       191.29
 340.498  136.586  229.219       191.29
  20.583   38.821   38.130       191.29
 356.052  115.547  246.488       191.29
  55.989  161.014  281.604       191.29
  27.063   30.900   20.950       191.29
  23.699  125.197  225.110       189.88
 347.802   64.711   39.014       189.88
 179.774   81.430  336.865       189.88
   8.112  151.467  178.870       189.88
  18.112   43.362   59.421       189.88
 359.789  125.331  230.514       189.88
 346.726   82.969   40.381       189.88
  24.616  148.789  264.986       189.88
 182.100  106.701  132.206       189.88
 330.459   26.734   79.523       189.88
 160.454  128.084  318.794       188.47
 322.157   46.889   59.132       188.47
 305.687  152.923  183.016       188.47
 170.088   82.136  149.716       188.47
   8.862   91.571  224.803       188.47
   1.462   85.355   28.038       188.47
   0.473  125.670  259.064       188.47
 163.586  143.337   37.103       188.47
 354.126   80.562  210.209       188.47
 121.749    2.960  310.948       187.07
 168.432   30.531   82.253       187.07
  17.962   49.235   46.583       187.07
 351.521  165.879  218.972       187.07
 272.696  129.345  217.423       187.07
 222.356   49.744  105.722       187.07
 209.212  131.412  351.622       187.07
 167.281   88.441  137.589       187.07
 177.278   80.349  132.200       185.66
 350.104   98.194  212.944       185.66
 171.918  149.309  351.246       185.66
 340.348  129.216  241.124       185.66
 195.876   81.218  158.985       185.66
 347.498  160.567  251.427       185.66
   1.366  132.317  220.171       185.66
 194.287  165.337  359.691       185.66
   9.828  139.899  222.011       185.66
 166.690  132.036  110.607       185.66
  77.570  165.685  298.041       184.25
 103.396  168.223  265.188       184.25
 149.037  159.029   87.375       184.25
 352.715  141.845  214.953       184.25
  39.292   46.330   52.745       184.25
 359.678   81.547   26.665       184.25
 349.254   79.311   84.143       184.25
 348.647  132.401  208.818       182.85
 115.581  153.523  304.883       182.85
 341.335   45.939   53.725       182.85
 346.490  143.703  181.845       182.85
 338.701   33.051   54.263       182.85
 170.567  118.079  102.484       182.85
 196.164   79.560  325.129       182.85
 347.766  159.541  201.344       182.85
 349.338   82.773   37.946       182.85
  37.504   34.289   16.435       181.44
 179.299   98.177   96.630       181.44
 183.373   70.146  349.272       181.44
  32.393  127.905  278.135       181.44
 331.487   35.051   64.194       181.44
 347.194  138.480  227.434       181.44
 186.821   78.201  326.790       181.44
  19.731   35.491   55.959       181.44
 305.945  143.550  219.009       181.44
  19.915  145.219  134.855       180.03
 188.184  112.408  104.547       180.03
 184.674  102.963  320.954       180.03
 179.478  127.740   19.161       180.03
   2.478  132.274  253.693       180.03
 188.077   49.539  335.159       180.03
 344.463  147.126  234.828       180.03
 308.100   40.157   64.565       180.03
 302.738   23.163   50.726       180.03
  50.160  141.583  264.348       180.03
 172.781  123.158  103.115       180.03
  57.975   34.969   35.846       180.03
   4.700  126.491  240.082       180.03
 193.903  140.617  304.623       180.03
 166.382   70.999  165.899       180.03
 175.644  144.117  146.142       180.03
   7.538   89.663   71.097       180.03
 349.863   90.736   85.044       178.63
  16.667  147.017  214.446       178.63
 340.794   21.640   56.122       178.63
 164.118   31.066  278.314       178.63
  33.445  152.233  263.824       178.63
   1.546   62.530   46.752       178.63
 175.022   90.262  340.039       178.63
 354.149   88.324   37.184       178.63
 354.945  146.206  224.487       178.63
  11.811   52.304  215.835       178.63
 358.647  132.182  231.027       178.63
 151.295  162.681  110.449       178.63
 355.470   41.809   68.797       178.63
  35.844  150.096  227.200       178.63
 219.525   29.750  333.629       178.63
 358.925   77.870   34.623       177.22
 181.593  110.403   25.361       177.22
  16.171  128.006  212.355       177.22
  42.376   27.434  348.732       177.22
 199.958  126.170  145.867       177.22
 338.652  139.899  207.005       177.22
 319.312  139.796  192.564       177.22
 356.552  101.633  257.805       177.22
  18.946  147.618  210.730       175.81
 355.486  147.148  249.745       175.81
  44.654   48.816   25.545       175.81
   8.788   97.287  221.675       175.81
   3.816   86.110   40.365       175.81
 200.731  139.263  181.231       175.81
 154.908   51.483  319.242       175.81
  33.765   33.636   19.136       175.81
 340.560  120.748  218.671       175.81
 352.887   52.381   30.613       174.41
 178.879   62.821  162.254       174.41
 180.950   41.453  315.562       174.41
 130.467   34.405  166.255       174.41
   0.426   46.215   64.603       174.41
 353.981  134.678  249.685       174.41
 352.797   66.583   49.110       174.41
 357.146   85.160  220.286       174.41
 197.379  126.138  344.814       174.41
 274.090  168.583   96.984       174.41
 330.635   41.440   69.735       174.41
 163.762   72.015  326.795       174.41
 159.106  141.961  331.911       174.41
  83.923   59.405   13.596       173.23
 306.850  144.100  213.786       173.00
   3.066  146.171  277.877       173.00
   0.754   23.726   45.591       173.00
  18.956  142.877  223.052       173.00
 170.103  137.851  278.501       173.00
   8.771   96.592   78.977       173.00
   0.339   71.267   76.245       173.00
 333.689  136.104  199.661       173.00
 236.189  172.497  147.225       171.59
 173.474   95.482  324.704       171.59
 148.157  130.369   84.313       171.59
 167.395   76.662  156.412       171.59
 131.678  157.751  328.133       171.59
  22.706  139.258  217.126       171.59
  15.044   40.867   13.241       171.59
 171.264  123.762  163.343       171.59
 182.536   89.658  153.218       171.59
 161.894   98.037  327.699       171.59
 188.285   79.753  345.216       171.59
 198.179  131.354  328.358       171.59
 343.534   33.824   62.803       171.59
  82.913  158.606  301.645       171.59
 207.108  142.038  358.620       171.59
 163.286  137.231  329.180       171.59
 330.593  127.925  217.268       170.19
 156.661  128.260   11.300       170.19
 316.546  153.252  209.158       170.19
 168.273   19.002   18.038       170.19
 178.215  140.479  325.006       170.19
 342.251   55.499   87.989       170.19
 112.940   30.261  354.231       170.19
 161.377  132.217   95.652       170.19
  54.010  138.616  256.618       170.19
 180.803  122.641  354.255       170.19
 359.935   39.427   53.543       170.19
 353.791  160.100  209.238       170.19
 359.265   32.525   29.606       168.78
 161.365   41.346  359.507       168.78
 312.990  143.689  218.821       168.78
 258.563   26.869   84.486       168.78
 219.382   23.216  117.453       168.78
   3.682   41.981   39.439       168.78
 132.667   19.650  262.669       168.78
  65.680  157.838  333.685       168.78
 233.073   40.171  271.734       168.78
 340.807   36.793   26.610       168.78
 332.407   12.612   89.852       167.37
  10.298  114.977  229.693       167.37
 159.303  145.727    0.037       167.37
 147.408   11.047  157.025       167.37
  21.615  128.569  260.639       167.37
 192.160   40.740  105.364       167.37
 178.312  130.950  333.505       167.37
 182.437   91.719  152.214       167.37
   9.789  135.501  235.549       167.37
 189.554  153.540  326.639       167.37
 171.104   30.830  303.903       167.37
   3.209  116.629  218.750       167.37
 306.840  159.144  211.442       167.37
 195.782  128.528  354.024       167.37
 359.422  107.264  207.436       165.97
 336.126  149.719  215.694       165.97
 337.966   94.706  252.084       165.97
  12.765   32.723   48.414       165.97
 335.532   63.721  252.605       165.97
 352.747  126.970  181.438       165.97
 339.329   89.652  258.576       165.97
 335.190  102.188  256.270       165.97
  24.541   47.982  219.967       165.97
 345.712   83.297   31.334       165.97
 291.812  162.019  149.800       165.97
 349.410   37.457   79.073       164.56
 177.107  107.659  345.169       164.56
   7.325   35.883   54.203       164.56
  50.748   14.856  328.238       164.56
 238.082  165.553   65.132       164.56
  27.554   40.245   44.415       164.56
 174.636  144.693   80.611       164.56
 180.248  100.778  341.503       164.56
  19.279  124.681  254.567       164.56
 157.716   28.159  177.784       164.56
 109.412  126.417  141.709       164.56
 165.430  139.403  136.071       164.56
  68.333   48.057  216.737       164.56
 175.429   71.294  138.392       164.56
 354.727   95.417   34.157       163.39
 283.962  150.987  182.494       163.15
 170.945   29.076  234.268       163.15
   2.624   93.963  214.495       163.15
 349.859  134.051  219.161       163.15
 218.919  155.681   55.515       163.15
 352.083  122.853  227.692       163.15
 332.973  144.385  200.969       163.15
  96.886   32.430  156.802       163.15
  12.311  138.664  231.215       163.15
 190.564   60.335  324.397       163.15
  27.147  165.042  243.235       163.15
 335.305  115.909  237.375       163.15
  13.979  106.749  218.701       163.15
   1.608  103.518  232.835       163.15
 308.576   16.720   59.865       161.75
 349.399   87.702  219.720       161.75
  13.760  135.483  232.355       161.75
 173.602   91.035  137.721       161.75
  14.410  138.695  238.124       161.75
 162.153  147.119  357.602       161.75
 142.503  144.402  116.534       161.75
 136.646  164.828  316.670       161.75
  63.695  138.177   67.282       161.75
 320.079  126.150  254.860       161.75
 347.755  101.644  252.653       161.75
 168.746   45.329  147.961       160.58
 219.921  137.086  133.267       160.34
 179.104   91.057  166.670       160.34
  20.000  124.248  248.261       160.34
 188.531   79.305  348.161       160.34
 184.514  152.377  125.234       160.34
 170.437   59.934  356.523       160.34
 155.746   93.170  148.100       160.34
 141.474   79.371  326.502       160.34
 161.729   84.559  150.309       160.34
 119.981  137.297  277.985       160.34
 175.197   90.345  143.286       160.34
  51.255  146.673  273.173       160.34
 203.704  142.030   28.348       160.34
 119.782  153.478   45.306       158.94
 342.332  147.215  208.078       158.94
 203.005  133.494  338.375       158.94
 116.216  154.608   26.300       158.94
  13.259  139.746  236.195       158.94
 158.652   86.682  340.286       158.94
 221.296   47.216  313.840       158.94
  33.413   46.302   32.925       158.94
 358.401  139.923  245.491       158.94
 170.595  143.498   85.120       158.94
 171.407  154.466   95.049       158.94
 340.082  129.290  190.438       158.94
 359.148   93.257   70.946       158.94
 323.997  133.672  229.610       158.94
 170.928  115.153  101.429       157.53
   5.847   64.328   65.257       157.53
 359.439  107.450  216.153       157.53
 222.259   37.389  355.481       157.53
 182.914  125.626  357.507       157.53
 189.406  131.680  325.764       157.53
   6.648   47.324   13.675       157.53
  60.518   31.156  321.804       157.53
   8.708   87.260   65.035       157.53
 264.982   24.468  348.324       157.53
 200.369  154.106  120.981       157.53
 144.284  142.628  314.825       157.53
   9.703   76.852  215.391       157.53
 154.375  131.124   92.694       157.53
 153.717  147.036  350.224       157.53
  13.892   58.072   44.036       157.53
 186.776   92.185  351.766       157.53
 184.599  121.018  320.138       157.53
 195.857  110.205  319.697       157.53
  21.629  132.989  246.540       157.53
 308.849   31.405   61.407       156.12
 175.040  131.847  127.323       156.12
  50.610  128.632  251.186       156.12
 237.487  153.209   36.488       156.12
 349.262  127.167  220.427       156.12
 227.400  172.792  142.221       156.12
 355.467  122.704  212.425       156.12
 197.219  163.805  345.967       156.12
 186.152   45.041  311.862       156.12
 171.924   83.252  149.086       156.12
 171.083   36.967  354.106       156.12
  93.135  162.242  322.185       156.12
  32.842   41.591  347.408       156.12
 353.078   95.793  209.664       156.12
 340.539   54.206   39.566       156.12
 306.324   41.559   63.229       156.12
 129.552  151.161  289.120       156.12
 336.696   47.914   30.899       156.12
 313.778   30.559   97.951       156.12
 157.766   26.879  149.192       154.72
   8.122  115.662  250.431       154.72
 189.693  104.058  105.721       154.72
 187.308  135.741  147.178       154.72
  17.226   39.952   38.886       154.72
 167.935   31.588  230.299       154.72
 284.514  145.704  207.941       154.72
  25.016  159.331  182.655       154.72
 122.065  141.504  125.244       154.72
  94.532  139.878  272.771       154.72
 181.495  120.165  327.641       154.40
   3.866   48.097   32.644       153.31
  55.798  163.577  239.391       153.31
 141.940  144.452  276.727       153.31
 239.770   44.932  269.803       153.31
  28.732  166.952  221.714       153.31
 155.398   99.360  146.482       153.31
 129.936   17.065  313.182       153.31
 167.461   72.278  167.529       151.90
  14.729   44.582   58.277       151.90
 357.479   47.903   24.057       151.90
 188.783   94.302  336.714       151.90
  16.503   64.054  215.796       151.90
 157.318   51.985  349.388       151.90
 200.753  142.319  341.604       151.90
 175.633  146.322  349.652       151.90
 118.754  152.643    6.551       151.90
 113.417  148.179  102.808       151.90
  26.503  142.442  226.791       151.90
 218.543  137.291  123.047       151.90
 283.747   37.173   99.905       150.50
 349.310   84.704   35.816       150.50
 336.656  123.540  219.225       150.50
 180.743  125.008  132.104       150.50
 181.127  134.089   80.972       150.50
 119.384   22.358  337.676       150.50
 170.314  142.690   98.576       150.50
 347.235   45.783   84.547       150.50
 342.650  119.822  217.618       150.50
 142.462  145.431  102.905       150.50
 279.463   30.056  153.641       150.50
 344.887   48.175   58.038       150.50
 252.243   21.817  135.519       150.50
 117.672  159.731   34.003       150.50
  10.336  143.637  223.757       150.50
 170.405   92.286  334.531       150.50
   7.776  122.987  220.733       150.50
 119.896  168.684  292.771       150.50
 187.874   62.565  274.428       149.09
   0.226  136.399  204.094       149.09
 343.316  134.204  212.489       149.09
  37.397  133.861  263.611       149.09
 182.014   98.669  331.732       149.09
  41.310   32.014   31.343       149.09
 203.131  150.427  125.107       149.09
 321.712  148.417  164.690       149.09
 193.061   75.645  180.398       149.09
 144.066  141.638  108.865       149.09
  11.779   58.249   40.331       149.09
   0.258   58.945   65.851       149.09
 189.285   72.298  330.327       149.09
  88.643  149.311  310.558       149.09
 319.595  153.220  201.900       149.09
 350.845   28.492   47.926       149.09
 345.776   74.611   49.868       149.09
 193.525  115.951  331.608       147.68
  68.503   22.921  297.488       147.68
 352.623   99.905  208.779       147.68
  10.176  123.519  221.566       147.68
   4.071  121.134  224.889       147.68
   0.350  118.733  267.623       147.68
   1.649   91.921   38.533       147.68
   6.571   86.571   70.069       147.68
 171.161  147.640   28.814       147.68
 356.441   58.396   38.911       147.68
 159.939  145.366  331.780       147.68
 323.272   39.880   62.685       147.68
 352.510   37.176   29.792       146.28
 339.676  123.314  220.321       146.28
 178.028   96.764  171.546       146.28
 179.178  103.882  102.880       146.28
 139.231   15.046  252.215       146.28
 173.806  108.563  116.771       146.28
 353.457  150.717  237.912       146.28
 185.889   58.023   59.777       146.28
 179.814  129.151  144.555       146.28
 357.429  130.717  246.548       146.28
 220.095   53.974  331.840       144.87
 173.364   99.493  325.497       144.87
  48.553  158.683  282.544       144.87
 280.904  152.459  168.327       144.87
 304.232   29.373   25.550       144.87
 189.670  149.613  122.090       144.87
  64.517  151.844  300.894       144.87
 346.261  135.145  227.575       144.87
 164.684  127.367  163.519       144.87
 217.450  136.098  138.199       144.87
 176.126   53.169  154.169       144.87
 319.716   24.731   48.558       144.87
 244.829   11.124  223.470       144.87
 356.133   32.995   44.961       144.87
 238.569  168.742   44.271       144.87
 220.161   12.341  159.228       144.87
   4.304  116.017  231.535       144.87
 173.651   32.763  272.100       143.46
 353.148  141.444  222.573       143.46
  21.594  136.997  263.470       143.46
  16.971  145.859  222.050       143.46
  26.701  143.176  270.516       143.46
  14.588  150.247  270.566       143.46
 196.473   64.095  140.366       143.46
 161.865   22.794  276.680       143.46
 170.368   35.710  271.492       143.46
 269.055   51.903   97.774       143.46
 355.111  151.722  269.337       143.46
 168.729  118.677  339.621       143.46
  10.440   85.876   36.717       142.06
 156.523  112.209  156.227       142.06
 189.538  137.903  332.329       142.06
 175.647  163.449   81.639       142.06
   6.746   80.822  222.006       142.06
  23.630  128.526  208.435       142.06
   5.059   43.194   33.639       142.06
 337.507  145.051  197.589       142.06
 340.300  142.459  241.687       142.06
   9.320   47.284   43.228       142.06
 320.445   35.512   24.349       142.06
 186.010   58.950  326.115       142.06
 346.322  135.830  227.906       142.06
  24.979  139.414  254.085       140.65
 177.180  113.700  325.239       140.65
 328.281   33.600   66.666       140.65
  16.304  136.410  244.269       140.65
  17.084  131.902  228.192       140.65
  39.377  155.859  264.668       140.65
 183.742  100.991  144.312       140.65
  11.570   33.866   22.664       140.65
 356.819   71.231   51.968       140.65
 185.421   92.705  151.451       140.65
  12.007  158.371  175.346       140.65
   4.028  115.977   36.235       140.65
  13.021   66.418   62.057       140.65
 137.617  160.884   69.602       140.65
 339.909   59.590   58.055       140.65
 181.697  161.934  109.582       140.65
 179.432   69.623  154.449       140.65
 294.107  143.782   86.231       140.65
 157.489   63.715  352.532       140.65
 201.126  134.084  327.604       140.65
   9.032  133.370  235.039       139.24
   8.956   81.315  211.137       139.24
 174.417   45.569  346.182       139.24
 125.919  154.545  330.240       139.24
  21.497  153.768  222.388       139.24
 173.100  123.638  355.418       139.24
 354.405   32.890   56.591       139.24
  22.089   93.717  220.272       139.24
 126.229    6.187  245.479       139.24
 167.791  149.841   57.841       139.24
 349.053  147.047  251.599       138.07
 200.673   37.933  277.490       137.84
 356.985  147.554  209.010       137.84
 253.430   15.226   46.563       137.84
 318.880   24.157  113.749       137.84
 346.052  134.954  209.896       137.84
 349.608  147.611  226.082       137.84
  49.964   22.239   30.598       137.84
 300.296  119.513  206.608       137.84
 168.244  154.592   25.839       137.84
 357.829  107.799  241.379       137.84
 356.376  159.789  269.219       137.84
 179.895   24.409  160.844       137.84
  17.907   37.609  345.137       137.84
 355.185  155.390  280.738       137.84
  33.346   23.744    5.864       137.84
 100.336   34.064  268.144       137.84
 188.254  164.391  344.861       136.67
 231.751   69.181  149.715       136.43
 172.451  119.420  104.913       136.43
 350.074  106.048  262.482       136.43
  32.382   34.109   37.941       136.43
 198.506  129.645  342.413       136.43
 207.476   66.791  323.874       136.43
 241.350  153.127  351.395       136.43
 155.983   51.829  150.582       136.43
 109.323    6.016  247.322       136.43
 358.561  141.634  229.174       136.43
  85.825   39.137  355.901       136.43
 313.445  154.950  224.001       136.43
 203.329  139.414   65.780       136.43
 242.002  134.939  190.000       136.43
 196.814  119.814  162.427       136.43
 171.523  117.567  340.586       136.43
 341.614   51.167   67.620       136.43
 358.733   15.357   52.226       136.43
 321.846  146.773  213.350       136.43
 193.823  133.636  310.383       136.43
 157.568  147.036   78.622       136.43
   5.624  142.909  220.769       135.02
 178.634   93.494  328.033       135.02
 173.376  110.752  129.433       135.02
 182.368  120.322  340.162       135.02
  19.292   68.762   44.885       135.02
 163.519   31.717  150.410       135.02
 342.871  119.409  211.640       135.02
 345.339  128.047  219.001       135.02
 352.860   29.459   21.260       135.02
 184.664  117.142  354.291       135.02
 339.120  140.178  208.591       135.02
 177.793   82.144  330.773       135.02
  19.592   43.207   46.384       135.02
  48.024  147.321  212.923       135.02
 173.473   62.490  145.989       135.02
  11.208  129.031  222.094       135.02
 351.485   93.120  215.945       135.02
  20.689  120.246  266.826       135.02
 199.129  122.313    0.295       135.02
 165.453  103.363  323.744       135.02
  92.715  167.124   10.014       133.62
 172.382  120.382  323.752       133.62
 110.144   18.246  315.665       133.62
  44.114   26.812  333.451       133.62
  12.297  177.785  263.437       133.62
 196.040  142.355  143.038       133.62
 351.622  102.968   31.489       133.62
  56.245   36.683  191.407       133.62
 359.910   70.827   79.382       133.62
  11.142  135.013  239.864       133.62
   6.065  104.812  214.724       133.62
 344.135  148.569  212.191       133.62
 122.598    6.038  263.105       133.62
 184.857   47.072  280.190       133.62
 115.780  155.585  227.261       133.62
 283.055  140.394  138.521       133.62
 158.227  147.428   91.811       133.62
  38.437   32.640   33.910       133.62
 357.994   65.641   66.747       132.21
 175.505  100.907  126.457       132.21
  89.463   17.315  342.725       132.21
 182.140   61.418  319.419       132.21
 180.815  121.649  326.811       132.21
 182.580  131.288  325.617       132.21
 183.754  107.504  331.672       132.21
  42.330  168.865  255.114       132.21
   6.331  139.793  217.615       132.21
   3.628  137.315  258.004       132.21
 357.493  121.002  222.157       132.21
 154.468  147.334   89.833       132.21
 296.662   26.327   80.546       132.21
 164.794   42.149  276.165       132.21
  25.101  119.293  212.124       130.81
 213.294   21.688  223.009       130.81
 354.916   64.938   83.883       130.81
 175.145  145.941  329.755       130.81
 355.896   57.571   56.706       130.81
 179.924   70.513  324.944       130.81
 334.216  141.221  199.970       130.81
 329.679  143.505  191.579       130.81
   7.152   34.554   38.434       130.81
 349.880  100.347  243.086       130.81
 359.108   58.226   64.382       130.81
 177.359   84.632  318.884       130.81
 179.761   89.740  135.160       130.81
 299.920  152.455  143.106       129.40
 348.792  112.370  203.640       129.40
 328.612   31.233   88.054       129.40
 323.909  121.418  252.365       129.40
  23.723  137.344  226.134       129.40
  57.574    2.754  300.570       129.40
 185.133   81.175  140.337       127.99
 280.561  132.076  187.070       127.99
 356.342   95.632  258.660       127.99
 174.405  149.301  355.530       127.99
 258.133   20.752  356.472       127.99
 207.135   33.619  325.517       127.99
 155.836  146.602  343.981       127.99
  13.422   81.542  221.833       127.99
   4.611   93.343  217.053       127.99
  43.463   44.712   41.484       127.99
 158.552   34.091  137.468       127.99
 331.650  143.033  198.184       127.99
   2.140   81.793  216.671       127.99
 352.707   87.511  272.053       126.59
 318.424   28.255   93.544       126.59
  74.852  178.445  313.624       126.59
 348.613   54.431   53.490       126.59
 357.507  146.508  225.885       126.59
 273.585  159.186  184.703       126.59
 248.751   35.615  305.549       126.59
 177.102  132.377  345.062       126.59
 158.925  137.563  112.291       126.59
 119.057  151.675   79.775       126.59
 172.539  137.201  134.870       126.59
  10.331  102.042   52.737       126.59
  23.334   26.665   36.810       126.59
 174.597  154.152   12.147       125.18
 209.322   24.454   86.617       125.18
 350.961   49.275   72.578       125.18
 176.473   52.239    6.409       125.18
 359.475  120.130  255.552       125.18
   0.925   37.499   37.176       125.18
  13.242   82.708  213.965       125.18
 155.494   57.918    6.148       125.18
 296.081  144.214  168.092       125.18
 183.488  140.781   92.481       125.18
 354.073   43.706   44.913       125.18
   7.460  138.636  221.578       125.18
 191.687   95.642  329.987       125.18
   3.467   76.372   64.302       125.18
   3.693   92.379  266.692       125.18
 158.656  155.952  100.344       123.77
 178.239   57.027  148.872       123.77
  67.244   20.967  335.557       123.77
 340.266  130.582  224.305       123.77
 358.366   44.530   84.572       123.77
   0.487  119.613  224.502       123.77
 358.752   82.997   69.391       123.77
  25.065  144.339  264.409       123.77
   2.516   83.684   74.961       123.77
 263.505  166.888   46.953       123.77
 353.072   75.093  237.231       123.77
 346.988  130.681  239.742       123.77
 195.979  161.898  104.170       123.77
 174.577  133.612  346.491       123.77
 184.366   84.811  313.344       123.77
   6.034  136.634  195.347       122.37
  55.839  160.265  228.577       122.37
 207.953  166.553   32.468       122.37
  10.674   38.715   28.264       122.37
  19.205   48.248   55.274       122.37
 354.853   50.304   26.158       122.37
   0.621  154.218  194.330       122.37
   9.169   36.768   40.297       122.37
  13.543   32.720   23.282       122.37
 313.400  148.043  158.443       122.37
  50.406   41.453   15.555       122.37
   8.946   96.781   72.482       122.37
 239.877  163.984   10.129       122.37
 165.943  105.329  327.785       122.37
  14.190  145.856  244.732       122.37
 109.354  147.953    3.191       122.37
 177.965  130.083  355.876       122.37
 173.329  127.799  329.990       122.37
 275.584   26.525  114.633       122.37
  50.518   71.566   31.963       122.37
  79.467   28.363    1.551       120.96
   6.356   19.363   38.798       120.96
   1.824   36.062   39.535       120.96
  14.757  148.029  233.805       120.96
 156.376   24.838   37.164       120.96
 182.210  140.049   21.706       120.96
 314.625  158.527  193.177       120.96
 318.877  162.038  199.821       120.96
 344.023  125.218  232.914       120.96
 359.809   71.676  202.719       120.96
 254.091  146.851   59.915       120.96
 337.957  112.251  194.869       120.96
 201.855  157.916  109.172       120.96
 257.665  149.157   20.552       120.96
 333.843  126.797  249.204       120.96
 176.743   51.109  325.999       120.96
 148.140  142.995  126.550       120.96
   5.526  102.778  235.126       120.96
 253.971  150.903  128.653       120.96
 352.626  152.374  257.028       120.96
 359.472   97.818  205.258       120.96
 204.392   69.318  316.824       119.55
   9.423  127.276  229.129       119.55
 348.591  128.857  245.877       119.55
  11.214   94.824   78.042       119.55
 141.935  147.065   74.526       119.55
   7.669   79.010   73.296       119.55
  10.784   48.049   44.436       119.55
 189.692  126.124  345.491       119.55
 335.100   34.276   82.724       119.55
 192.108  112.195  321.852       119.55
   5.542   90.274  207.776       119.55
 171.416  155.007  112.688       119.55
 288.363  154.656  179.783       119.55
 299.779  151.182  180.743       118.62
 197.398   46.194  339.316       118.15
  51.717   26.560    7.551       118.15
 285.000  146.420  170.008       118.15
  99.336   17.046  266.309       118.15
   7.134   79.208  224.936       118.15
 180.760   56.357  333.610       118.15
 348.666   99.213  223.768       118.15
 336.983   13.487   49.584       118.15
   3.166   82.939  208.514       118.15
 325.357  140.784  210.076       118.15
 326.155  153.603  252.468       118.15
  16.794  123.266  204.125       118.15
  12.324  142.511  224.836       118.15
 162.831  161.963    2.539       118.15
  38.636  134.094  250.739       118.15
 181.469   87.536  339.141       118.15
  21.086   39.209   45.266       118.15
   3.434   55.535   29.736       118.15
 205.524  150.055  125.629       118.15
 166.445   78.163  142.140       118.15
 180.291  147.547  347.645       116.74
  11.650  114.096  225.930       116.74
 187.670  106.757  322.251       116.74
 349.337  136.186  245.387       116.74
 182.051   99.301  328.025       116.74
 351.613  152.604  241.003       116.74
  68.115  163.682  238.359       116.74
 172.628  145.302  345.061       116.74
  34.341   22.693   40.367       116.74
 344.338  145.255  224.935       116.74
  18.574   46.142   58.664       115.33
 184.803  119.352  103.402       115.33
 176.017  131.926  352.043       115.33
 243.216  139.841  341.173       115.33
 356.333   90.053   83.970       115.33
 132.469   19.188  297.096       115.33
  99.856   37.349   14.465       115.33
 215.930  153.158    2.954       115.33
   6.728   83.751  218.048       115.33
 175.505   38.022  133.640       115.33
 156.744  141.031  346.096       115.33
   4.226   27.063   46.198       115.33
 159.673  141.440  117.056       115.33
 338.027  141.868  226.752       115.33
 270.566  144.794   66.142       115.33
 358.347  140.798  256.030       115.33
 326.504   46.120   38.305       115.33
 204.034   38.803  259.669       115.33
 340.074  142.635  195.135       115.33
 348.751  104.522   26.842       115.33
 343.189   93.569   45.892       115.33
   4.315   49.592   49.828       113.93
  12.118  106.874  231.339       113.93
  10.645   57.476   58.572       113.93
 317.377  134.023  231.189       113.93
  19.924   41.244   44.666       113.93
 359.036   47.606   42.585       113.93
 147.456  154.972  297.167       113.93
  52.814  138.918  236.689       113.93
  20.612  145.944  173.316       113.93
   9.595  133.073  228.423       113.93
 353.395  127.137  219.933       113.93
 146.574  135.667  135.250       113.93
  24.030   39.111    3.107       113.93
  19.293  114.232  264.635       113.93
 184.975  107.453  317.641       113.93
 356.279  138.699  228.072       113.93
 183.724   69.996  299.219       112.52
 317.315  135.304  204.105       112.52
 246.255  152.999  135.076       112.52
 214.605   17.179  283.124       112.52
 190.598  134.197  115.738       112.52
 346.372   54.997   64.290       112.52
 160.009  131.251  113.261       112.52
 184.279   85.552  156.879       112.52
 350.303  102.073  258.483       112.52
 346.010  130.384  218.888       112.52
 319.909  114.431  203.933       112.52
 147.660  134.946   85.989       112.52
 331.622  141.237  205.478       112.52
  13.539   68.114  210.736       112.52
 190.382   51.838  348.749       112.52
 321.877  154.639  170.256       112.52
 148.839   41.640  301.607       112.52
 355.660   73.921   24.971       112.52
 337.335   19.055   39.400       112.52
 346.040  133.141  199.909       112.52
  20.099  156.867  203.638       112.52
   3.869   93.294  224.107       112.52
   0.101   77.971   41.172       111.11
 322.443   52.022  240.032       111.11
 139.743   63.506  163.425       111.11
  11.812  154.658  173.206       111.11
 171.168  127.242  137.885       111.11
  23.727   76.523   59.819       111.11
 179.405   55.995  154.690       111.11
  13.627  163.728  213.494       111.11
 160.984   85.974  319.528       111.11
  14.897   78.389  220.902       111.11
 350.651   35.153   81.858       111.11
 350.735   57.792   18.146       111.11
 158.160   44.371  339.410       111.11
 138.731  134.909   92.436       111.11
  53.074   23.049  325.789       111.11
 171.709   45.066  146.121       111.11
 190.250  157.959   73.442       111.11
  19.805  134.996  257.553       111.11
 271.915  114.334  150.342       110.18
 174.796  108.785  329.802       109.71
  18.468  128.041  205.928       109.71
   0.383  118.575  267.731       109.71
  24.050  138.080  242.810       109.71
 355.856   30.542   57.092       109.71
 355.852  139.476  208.373       109.71
  70.159   39.811   31.943       109.71
  17.957   30.654   42.295       109.71
 200.610   10.397  170.467       109.71
 207.774   30.356  277.862       109.71
 356.443   79.924   46.126       109.71
 315.766   20.425   56.097       109.71
 176.465   63.322  143.107       109.71
 342.769  143.438  189.081       109.71
 333.492  142.563  217.837       109.71
 336.558  152.322  226.072       109.71
 358.366   33.982   62.362       108.30
 251.805  156.823  109.061       108.30
  95.065   27.648  248.643       108.30
 324.564   14.650   60.481       108.30
   1.646   64.050   56.660       108.30
 181.955  115.026  327.888       108.30
 149.838   41.359  301.734       108.30
 185.912   99.641  140.500       108.30
 333.290  139.014  181.774       108.30
 233.758  142.390   26.562       108.30
  15.061   32.582   39.629       108.30
 209.221   43.648  280.520       108.30
 149.497  135.765  329.127       108.30
 358.965  121.593  214.154       108.30
 188.110   95.627  304.025       108.30
 194.205   89.050  149.659       108.30
 172.142  139.591  351.780       108.30
 154.440   23.390   20.180       106.89
 145.264   89.008  150.849       106.89
 182.645  106.698  106.148       106.89
 343.423   77.714  251.943       106.89
 172.984  135.952   94.728       106.89
 174.725   98.541  331.710       106.89
 309.512  151.796  205.290       106.89
   5.467  101.468   84.324       106.89
  39.031   26.001  317.700       106.89
 198.306   92.353  328.841       106.89
 299.507  138.199  188.241       106.89
 166.432  141.985  341.542       106.89
 161.046  139.953  297.242       106.89
 157.944   70.648  149.560       106.89
 340.192  130.356  237.884       106.89
 271.852  161.406   35.551       106.89
  31.066  126.100  219.950       106.89
  10.144   61.513   38.539       106.89
  12.315  117.494  269.298       106.89
  50.763  144.592  249.387       106.89
 177.562   80.657  158.973       106.89
 159.563   45.464  146.133       106.89
 329.261  152.673  235.776       106.89
 319.705  126.694  224.376       106.89
 344.890  138.017  155.013       105.49
 331.996   20.814   98.208       105.49
 194.447  118.016  309.988       105.49
  58.512  143.787  290.553       105.49
 327.224  110.558  234.539       105.49
 309.750   29.078   64.573       105.49
 174.803   96.871  307.997       105.49
 300.342  138.903  196.178       105.49
 349.818   67.324   34.899       105.49
 147.174   17.246  273.124       105.49
  41.894  139.882  254.211       105.49
  16.157  157.698  215.851       104.08
 346.456   42.378   39.588       104.08
 212.090  136.253  314.658       104.08
 215.446  134.532  346.463       104.08
  12.312  129.554  245.471       104.08
   1.534  153.803  282.477       104.08
  25.731   42.375  111.855       104.08
 203.622   19.136   52.677       104.08
 171.172  146.568  302.792       104.08
  93.110  154.093  214.058       104.08
   8.374  104.583  219.832       104.08
  10.013   34.933   62.275       104.08
  27.045  139.346  267.956       104.08
  19.720   40.093   27.348       104.08
  20.254   41.814   39.237       104.08
  43.862   25.114    1.906       104.08
 208.899   42.241  110.363       104.08
 348.700   20.202   57.926       104.08
 155.162  134.056  336.242       104.08
 333.777   96.984  260.577       102.68
 355.078  160.024  206.075       102.68
 353.198   36.308   28.359       102.68
 158.797   75.201  118.304       102.68
 342.100   18.998   77.975       102.68
 117.340   78.824  146.303       102.68
   7.718  126.250  217.361       102.68
   1.449  144.653  252.212       102.68
   7.752   87.001  248.595       102.68
   7.863  124.668  247.561       102.68
 345.464  108.562  227.545       102.68
   5.455   63.707   47.615       102.68
  33.091   36.915   12.212       102.68
 186.751   91.247  319.160       102.68
 346.994   27.479   74.305       102.68
 311.212   51.113   71.678       101.27
 348.672  120.273  211.821       101.27
 331.575  107.036  211.458       101.27
 179.344   70.267  160.984       101.27
  18.342   35.462   44.799       101.27
 356.934  117.717  219.397       101.27
  11.014   77.059   38.156       101.27
 173.406  118.804  112.191       101.27
 175.690    9.338   83.540       101.27
 188.288   89.318  293.849       101.27
 200.896  149.457  141.707       101.27
 204.551   24.644  214.238       101.27
  10.633   89.344  221.524       101.27
 356.464  122.246  244.046       101.27
  23.651   19.079   21.180       101.27
   2.104   92.975  213.670        99.86
  17.888  150.950  274.251        99.86
 349.840  132.766  220.886        99.86
 226.631   33.944  241.155        99.86
 164.807  126.942   94.455        99.86
 348.446  155.980  244.252        99.86
  30.106  131.186  263.118        99.86
 189.982  137.056  101.917        99.86
 255.167   98.733  184.280        99.86
 202.520   22.641  338.718        99.86
 342.250   45.643   53.631        99.86
 204.599  148.417  327.338        99.86
 202.374  141.807  327.067        99.86
 308.706   38.466  101.236        99.86
 355.705  162.183  251.245        99.86
   9.656   33.442   41.117        99.86
 349.427  108.600  242.065        98.46
  23.369   39.627   11.346        98.46
 352.914  144.098  187.783        98.46
 185.338  137.067  324.924        98.46
  20.465  105.822   44.453        98.46
 186.487  102.964  331.760        98.46
 356.088  102.465   29.914        98.46
  25.434   49.149   23.225        98.46
   8.755   96.028  212.309        98.46
   0.198  126.210  253.351        98.46
 247.679  151.942   87.095        98.46
 302.873  144.571  227.515        98.46
 347.765   83.938  259.728        98.46
 323.242   23.998   83.843        98.46
 143.292  152.130  103.425        98.46
 204.542  119.592  315.343        98.46
 347.952   75.140   46.686        97.05
 327.696  152.181  154.986        97.05
 101.219  129.803  124.873        97.05
 182.569   94.191  315.575        97.05
   1.391  124.026  210.240        97.05
 357.480   94.824  259.528        97.05
 172.064   49.493  345.663        97.05
 183.348   71.105  131.230        97.05
 340.392  141.819  148.182        97.05
 164.149  117.007   73.917        97.05
 119.190  154.887  283.398        97.05
 299.514   16.234   89.296        97.05
   9.573  136.328  211.941        97.05
 334.857  145.746  252.964        95.64
  48.323   36.450  342.205        95.64
   6.892   74.592  226.435        95.64
 156.910   90.371  335.535        95.64
 348.443  137.863  221.850        95.64
 353.615  148.765  244.079        95.64
 183.963  128.424  328.483        95.64
 160.770   51.268  130.293        95.64
   5.909   84.992  216.813        95.64
 203.677   51.159  329.474        95.64
 358.492   31.903   29.025        95.64
 209.361  107.840  330.404        95.64
 355.065   55.385   55.398        95.64
 120.469   83.509  148.545        95.64
 348.265   97.287   26.990        94.24
 187.914  100.179  136.463        94.24
 162.801  138.274  341.655        94.24
  11.344  138.730  226.965        94.24
   0.425   96.011   84.803        94.24
 231.311   38.841  342.426        94.24
 347.869  139.397  203.905        94.24
   1.048   75.100   25.229        94.24
 188.569  134.622  334.986        94.24
 186.865  110.099  103.931        94.24
  47.204    6.716  326.680        94.24
 352.616   62.783   51.955        94.24
 131.305  129.090   82.546        94.24
 323.012  144.748  189.591        94.24
 350.758   89.909  214.709        94.24
 333.396   38.324   29.656        94.24
 161.125   40.366  151.868        94.24
 353.454   53.603   15.196        94.24
 225.286   48.945  299.548        94.24
   5.457  109.275  205.700        94.24
 359.598  137.333  199.656        92.83
 181.715   77.447  151.800        92.83
 170.535   94.477  345.912        92.83
 177.249  150.457  344.809        92.83
 132.649  140.456  122.717        92.83
 134.144   49.116  301.859        92.83
   4.552  149.277  199.897        92.83
 343.903  140.200  222.763        92.83
 159.749  146.779   55.521        92.83
  36.372  143.464  235.551        92.83
 176.614  111.610  330.975        92.83
 176.768   99.151  100.130        92.83
 190.701  124.821  343.699        92.83
 344.698   42.614   30.864        92.83
 347.279  132.848  226.114        92.83
 343.658  137.074  197.973        92.83
   6.158  145.160  239.876        92.83
   4.550  111.573  216.227        92.83
   9.573  133.655  205.768        92.83
 126.882   66.635  147.537        92.83
 166.372   37.505  328.308        92.83
  11.687  147.230  213.239        92.83
  16.777   48.466   44.814        92.83
  18.600   30.653   31.972        92.83
 353.425  125.195  216.584        92.83
 355.218   89.015   27.316        92.83
 248.770  162.914   95.283        92.83
 355.452   53.078   52.866        92.83
 181.551  141.342  356.928        91.42
 204.743  145.943   98.533        91.42
 168.141  133.880   35.967        91.42
 178.269   75.776  332.888        91.42
 181.027   84.935   91.970        91.42
 322.979  156.047   77.731        91.42
 175.969   65.169  158.677        91.42
 140.978  153.782    3.040        91.42
 356.449  129.267  242.955        91.42
 168.128  122.627  101.003        91.42
 183.306  103.825  302.454        91.42
 353.336   49.354   33.223        91.42
  10.626   41.106   47.351        90.02
 124.301   35.870   25.064        90.02
 161.531  132.509   84.417        90.02
 187.025   75.969  345.440        90.02
 341.079  148.775  173.597        90.02
 358.060  100.530   42.238        90.02
   5.131  137.830  214.502        90.02
  23.287  141.536  276.107        90.02
 342.637  117.855  233.587        90.02
   8.004   86.894   89.687        90.02
   5.248  120.889  224.930        90.02
 165.056  144.363  274.775        90.02
 358.324   85.434   67.899        90.02
  62.846   25.001  337.088        90.02
   2.936   41.610   52.791        90.02
 315.598   39.511   91.555        90.02
 341.527  127.193  212.611        90.02
  15.014  133.911  206.953        90.02
 173.986  139.140  343.843        90.02
 177.798   72.703  335.412        90.02
 175.716   76.321  150.421        90.02
 349.680  148.242  245.447        90.02
 127.520   47.050  175.004        90.02
 352.602  107.238  220.924        90.02
 175.297  156.139    6.048        90.02
 239.425   53.478  335.874        90.02
  49.445  151.361  229.173        90.02
 340.604   70.166  241.674        90.02
 342.676   26.051   64.065        88.61
 334.676  132.585  221.494        88.61
 359.874  123.599  234.454        88.61
 336.044  136.602  225.803        88.61
 238.761    7.175  166.584        88.61
 338.781   41.999   71.338        88.61
 209.134  147.730   36.101        88.61
   7.201   51.548   15.396        88.61
 348.394   62.058   81.591        88.61
  10.293  109.641  145.132        88.61
 355.397   18.209   32.989        88.61
 185.991   92.864  149.662        88.61
  18.025  132.887  197.639        88.61
   0.320   89.638  263.257        88.61
  46.968   20.276   13.181        88.61
   1.319  112.269  195.676        88.61
  53.064   47.083  225.013        88.61
  93.450  158.249  244.703        88.61
  41.329   66.340   44.811        87.20
 340.927  120.983  244.138        87.20
 189.428  143.595  157.680        87.20
  22.174  123.062  200.112        87.20
 336.550   19.505   40.332        87.20
 174.447   90.871  342.692        87.20
  18.033   38.757   36.376        87.20
  24.049  153.587  211.765        87.20
 350.486   15.231   29.812        87.20
 182.491  126.643   46.689        87.20
 275.735  142.906   90.602        87.20
 106.750   32.734  179.411        87.20
 188.596  140.426  102.667        87.20
  35.051   30.319   43.293        85.80
  31.979  141.182  219.560        85.80
 291.877   32.084  136.777        85.80
 165.303   97.679  138.711        85.80
 147.394  100.186  154.319        85.80
 336.265  118.118  246.630        85.80
 355.711   41.197   47.349        85.80
  39.211  147.897  229.953        85.80
 149.605   32.492  162.873        85.80
  71.063  131.281   72.987        85.80
  12.084   77.109   33.202        85.80
 314.964   27.165   79.047        85.80
 181.192   23.655   11.122        85.80
 345.033  138.553  237.085        85.80
 310.089   19.403   97.221        85.80
 176.088   97.978  157.598        85.80
 336.096   50.495   29.378        85.80
 173.553   85.486  155.243        85.80
  39.710  147.952  263.609        85.80
  15.952  136.906  257.706        85.80
 336.493  137.954  207.268        85.80
 349.786  103.265  211.112        85.80
 335.236  142.093  227.816        85.80
 163.720  127.077  103.383        85.80
  54.802   35.900   15.786        85.80
 222.872   92.015   98.434        85.80
 323.307   16.468   55.488        85.80
  25.207  152.543  236.772        84.39
 157.889  161.744    3.199        84.39
 284.086  160.905  162.561        84.39
 163.053  132.945  340.576        84.39
 100.629  170.543  350.607        84.39
 312.622   32.383   46.178        84.39
 324.414  153.931  202.209        84.39
 174.931   93.497  162.511        84.39
 348.143   29.854   56.338        84.39
 230.468  161.749   97.554        84.39
 188.181   85.589  306.924        84.39
 103.359   24.444   29.289        84.39
   8.837  131.607  219.070        84.39
   8.616  113.095  218.793        84.39
 182.083   86.334  337.728        84.39
 358.987   73.389  239.628        84.39
  45.866  127.891  283.374        84.39
   7.539   59.653   43.420        84.39
 156.552  122.537  330.435        84.39
  25.042   61.243  213.725        84.39
 193.730   57.041  349.901        84.39
 341.863  141.445  220.794        82.98
 181.876  142.386  329.619        82.98
 161.158  126.569  320.971        82.98
 326.360  139.574  166.613        82.98
  37.478   81.772   60.350        82.98
 174.274  129.151  332.796        82.98
 343.567   34.885   38.782        82.98
 266.788  137.249  212.295        82.98
 347.511  127.654  186.528        82.98
   0.852  114.008  251.216        82.98
 180.933   84.621  152.026        82.98
 312.211   41.792   49.001        82.98
 205.575   16.763  342.484        82.98
 324.814   20.367   44.918        82.98
 342.280   55.755   47.661        82.98
 334.518  125.424  222.071        82.98
 215.191   44.566  300.550        82.98
 330.397   30.546   55.756        82.98
  11.988   87.211  212.040        82.98
 160.943  129.552  148.643        82.98
 357.407   62.743   41.041        82.98
 332.637  129.213  248.579        82.98
   0.677   44.891   50.133        82.98
 180.296   82.216  123.063        82.98
 338.833   25.539   66.107        82.98
 187.321   56.123  319.889        82.98
   6.712   89.556  216.100        82.52
 331.368  155.649  213.182        81.58
 202.547  116.341  345.424        81.58
 179.777  108.509   94.919        81.58
 300.105   23.110  126.544        81.58
 168.451  125.041  110.693        81.58
 165.859  147.329   97.304        81.58
 209.170   53.121  317.753        81.58
 173.763  118.854   92.494        81.58
 172.986   48.089  347.722        81.58
  26.749  164.244  215.806        81.58
   1.431  117.399  232.508        81.58
 204.611   52.322  330.430        81.58
 348.894  132.576  217.491        81.58
 359.887  137.014  203.324        81.58
 183.283  136.031  342.718        81.58
   0.308  111.090  210.586        81.58
 186.189   75.136  162.823        81.58
 185.718  123.184   99.394        81.58
 335.414   43.063   39.587        80.17
 196.852   65.114  310.398        80.17
  37.907  156.338  280.687        80.17
 357.811   60.536   38.719        80.17
 212.041  136.770  328.101        80.17
 154.487  109.168  149.055        80.17
 208.415   54.239  356.311        80.17
   9.053  148.511  231.579        80.17
 354.843   89.633  218.688        80.17
 356.295  111.579  254.327        80.17
 324.742  161.808  144.174        80.17
 338.058  150.070  199.784        80.17
 130.136  145.098  310.639        80.17
  16.674   93.370   63.410        80.17
 174.052   96.338  326.313        80.17
 180.582   93.451  108.788        80.17
  39.967   30.161   26.703        80.17
  29.303   51.169   51.291        80.17
   7.952  150.546  234.881        80.17
 168.132  131.951   79.917        80.17
 178.949  124.303  102.200        80.17
 325.919  139.041  215.865        80.17
 252.235  174.603   60.337        80.17
 293.508   16.569  111.454        80.17
 353.664   63.322  226.295        80.17
 124.904   18.903  253.768        80.17
  22.872  137.766  210.324        80.17
 213.472   89.710  135.615        80.17
 299.517  109.858  221.783        80.17
 103.365  165.400  254.372        80.17
 192.597   66.134  110.851        78.76
  14.518   64.672  220.668        78.76
 142.111  150.857  264.340        78.76
 258.635   21.937  159.916        78.76
   4.458  143.510  263.718        78.76
 349.490  110.786  230.734        78.76
  32.905   35.273   17.526        78.76
 350.740  133.296  211.788        78.76
 351.464   73.834  236.886        78.76
  37.178  149.098  239.654        78.76
 345.863   50.272   76.302        78.76
 179.792  147.339  358.163        78.76
   1.376   41.699   35.308        78.76
   9.322   54.693   33.215        78.76
 268.946   38.286  326.849        78.76
   3.135   81.845  220.190        78.76
 178.036  126.125  123.791        78.76
 316.897   30.359   56.346        77.36
 349.278   21.287   66.936        77.36
 173.858   69.143  155.361        77.36
 190.627   52.728  355.117        77.36
 342.637   47.273   45.990        77.36
 164.502   93.722  153.702        77.36
 201.756   54.723  289.882        77.36
 353.311   54.395   50.797        77.36
 167.836   26.627  264.386        77.36
 357.999  138.121  193.160        77.36
 357.909   57.532   25.201        77.36
 284.928   33.797   96.501        77.36
 355.474   79.318   61.407        77.36
  13.979  133.499  236.615        77.36
   6.489   38.987   60.278        77.36
 308.690  154.116  199.627        77.36
 110.090  159.486  291.329        77.36
 208.396  152.315  319.102        77.36
 327.210  152.136  210.505        75.95
   4.170   84.849  261.746        75.95
 358.189   49.313   48.364        75.95
  19.655  147.406  197.088        75.95
 172.939   28.532  326.396        75.95
 206.300  130.173  335.576        75.95
   6.540  155.947  211.622        75.95
 143.335   26.772   55.371        75.95
 359.218   45.611   43.037        75.95
 313.577   55.105   66.935        75.95
 306.916   44.601  272.950        75.95
 182.206  133.157  110.557        75.95
   4.764   44.101   25.606        75.95
 190.169   46.308  272.949        75.95
 192.515   43.504   41.200        75.95
  26.830   42.411  230.845        75.95
 135.569   50.813  146.783        75.95
 156.903  121.518  353.140        75.95
   6.125   91.632  223.120        75.95
 119.155   36.527  216.898        75.95
 176.302  101.266  331.842        75.95
 182.440   23.042  345.366        75.95
 153.045   45.068  339.911        75.95
 356.922   89.538   75.604        75.95
 215.238   36.985  325.038        75.95
 177.214  105.343  101.199        75.95
 159.011   48.018  320.215        75.95
   3.319   38.709   57.054        74.54
 189.516   98.251  332.049        74.54
   2.269  145.382  252.213        74.54
 348.117  125.639  236.972        74.54
 235.098  138.546  325.600        74.54
  16.742   75.872  233.172        74.54
 200.667   80.426  160.486        74.54
  23.264   60.965   28.747        74.54
 353.525  137.113  210.166        74.54
 167.747   50.945  143.574        74.54
 178.521   28.221  349.673        74.54
 184.362   20.701  205.601        74.54
 151.698   49.206  166.165        74.54
 246.495  145.444  165.168        74.54
 349.784  121.635  206.598        74.54
 304.196   82.556   32.470        74.54
 179.492  111.337  102.210        74.54
 353.377  144.735  202.593        74.54
 186.130   94.823  331.016        73.14
  16.551   20.586   41.902        73.14
 291.842  150.581  182.586        73.14
   5.382  128.673  253.777        73.14
 359.818  155.836  223.065        73.14
   4.344  129.784  207.440        73.14
 272.953    7.810  133.333        73.14
 356.703   89.499   68.288        73.14
 306.243  132.419  222.255        73.14
 178.563   41.572  142.376        73.14
 234.594  145.399    7.233        73.14
 184.551  155.297  106.484        73.14
 335.873   52.301   25.591        73.14
   2.231  127.632  209.685        73.14
 346.239   83.984   31.451        73.14
 188.361  145.678  329.120        73.14
 343.847   59.836   30.811        73.14
 343.959   83.653   25.489        73.14
  19.766  144.427  277.157        73.14
   5.196  109.527  233.273        73.14
 195.923  126.624  324.863        73.14
 178.516   99.905  299.301        73.14
   9.010   47.690   45.122        73.14
   1.416  153.133  256.872        71.73
 185.647   91.571  145.157        71.73
 188.861   98.983   96.814        71.73
 187.652  119.857  130.124        71.73
 164.522  147.008  136.787        71.73
 178.418  121.165  334.047        71.73
   8.615  135.203  228.096        71.73
 180.330   30.135  340.242        71.73
 262.426   37.558  317.143        71.73
   3.859   49.976   81.117        71.73
 151.494  146.643  312.423        71.73
   0.237  102.572  204.756        71.73
 347.197  137.500  231.250        71.73
 181.919   82.954  153.213        71.73
 168.451  123.535   96.331        71.73
  31.839   35.644  319.262        71.73
 171.842   87.305  152.442        71.73
 341.499  147.471  212.668        71.73
  28.559   58.407   60.129        71.73
 210.282   71.261  338.188        71.73
 154.059   94.059  130.375        71.73
  73.885   14.100  359.746        71.73
 345.968   95.439  248.546        70.33
   3.367  115.170  250.702        70.33
  10.516  151.551  230.441        70.33
 187.984   15.635  218.374        70.33
 356.987   94.769  215.096        70.33
 341.453   59.259   42.879        70.33
 130.077  141.421   56.388        70.33
  87.806  149.753  260.664        70.33
   5.572  138.221  247.172        70.33
 150.702   29.307   46.437        70.33
 171.102  120.602  334.549        70.33
 170.413  110.785  131.261        70.33
 339.903   37.594   23.966        70.33
 172.483  140.044  154.657        70.33
 342.490   41.879   91.051        70.33
 163.337  142.503  349.070        70.33
  83.354  173.419  341.868        70.33
  33.684  143.606  224.544        70.33
  14.703   88.174   36.955        70.33
  11.161  131.262  201.245        70.33
 226.570   14.040  163.973        70.33
 346.566   83.558   31.908        70.33
  11.075   43.327   59.968        70.33
  27.400   47.371   47.409        70.33
 176.071  111.486  312.671        70.33
  11.146   51.136   51.475        70.33
 342.792  139.624  218.962        70.33
 351.810  146.526  205.975        68.92
 253.069   45.009  284.311        68.92
   7.228  153.367  202.328        68.92
 313.760  157.156  195.126        68.92
 123.977   38.243  177.082        68.92
  15.425   44.233   14.735        68.92
  13.050  139.322  144.480        68.92
 123.673   16.521  254.617        68.92
 212.288  116.435  304.187        68.92
  22.060  145.582  233.411        68.92
 149.143   41.571  318.788        68.92
 189.402  105.127  153.226        68.92
 349.998   51.839   35.998        68.92
 339.960  126.391  205.288        68.92
  18.383  122.425  273.088        68.92
  84.343   19.783  327.785        68.92
 169.444   96.560  127.429        68.92
 338.959   59.969  252.928        68.92
 170.764   73.291  328.531        68.92
 170.086  130.684  347.942        68.92
 233.344   31.472  294.567        68.92
  70.320   33.037    7.322        68.92
 192.708  156.185   19.163        68.92
  21.560  139.859  196.361        67.51
 344.430   17.280   82.176        67.51
 175.406  123.304  107.538        67.51
 192.908  144.284   30.018        67.51
   7.809   57.705   77.235        67.51
 121.224  172.018  299.502        67.51
 213.918  156.450    8.672        67.51
 354.312  120.981  192.043        67.51
 177.478   48.610  312.416        67.51
  40.182   39.358  238.224        67.51
 143.866   80.700  339.030        67.51
 347.573   61.488   51.165        67.51
   7.684   39.768   49.242        67.51
 353.923   56.058   25.544        67.51
  55.298  117.082  192.063        67.51
 342.018   34.472   32.124        67.51
 188.845   79.610  319.040        67.51
 192.737   75.167  335.608        67.51
  39.458   24.558    4.005        66.11
  15.787  151.396  216.629        66.11
 130.812  145.212  342.325        66.11
 142.071  153.763  358.381        66.11
   0.081  138.190  247.449        66.11
  84.800   30.604  201.019        66.11
   8.489   21.581   43.965        66.11
 350.041  111.394  228.886        66.11
 198.272   83.138  355.275        66.11
  13.324   91.769   34.158        66.11
   0.723  143.403  223.026        66.11
 182.186  151.579   32.887        66.11
 161.273   44.609  355.546        66.11
  10.350  136.908  215.750        66.11
   1.582   45.318   33.269        66.11
  82.863   38.425  176.510        66.11
  15.597  136.519  206.315        66.11
 320.121  147.410  211.945        66.11
 194.631   14.451  359.679        64.70
  40.461  104.193   72.262        64.70
 173.810  114.841  304.071        64.70
  51.233  171.782  326.644        64.70
  21.779   21.123   43.606        64.70
 357.781   77.712  207.182        64.70
 107.282  140.297  159.524        64.70
 355.550  105.062  233.422        64.70
 354.730   24.315   55.430        64.70
 336.428  100.647  233.545        64.70
 178.647   75.660  180.219        64.70
 178.338  125.462  323.553        64.70
 248.947  147.384  139.654        64.70
 176.931   89.128  328.680        64.70
 161.174   50.196  322.655        64.70
 355.349  159.700  168.925        64.70
 180.224   92.314  325.343        64.70
 344.745  120.971  207.699        64.70
 177.937  130.345  102.254        63.29
   0.360   94.518  216.278        63.29
   7.133  136.672  206.195        63.29
 326.971  134.895  233.480        63.29
   1.018  128.630  190.481        63.29
  28.625   59.803  200.100        63.29
 315.450  146.568  173.895        63.29
 210.636  127.016    6.881        63.29
 173.637   61.768  148.303        63.29
 340.129   28.438   61.575        63.29
 330.263   25.288   63.744        63.29
 107.180   16.411  212.160        63.29
 173.841   88.569  151.277        63.29
 171.978   46.550   27.271        61.89
 197.626   45.044  340.525        61.89
 186.824   99.939  338.744        61.89
 169.358   52.623  328.408        61.89
 175.614  139.086  339.374        61.89
   1.015   86.570  226.323        61.89
 176.747  121.210   14.827        61.89
 243.855   36.298  293.865        61.89
 168.843   78.126  142.478        61.89
 237.748  133.798  333.901        61.89
 334.005   55.228   30.178        61.89
 352.528  154.971  193.089        61.89
 183.045  156.092  342.804        61.89
 183.403  114.351  172.536        61.89
 181.516  146.637  110.978        61.89
 163.792   96.674  149.098        61.89
 186.765   21.999   98.128        61.89
 194.366  141.636  349.257        61.89
 210.821   24.320  195.307        61.89
 354.109  144.549  221.272        61.89
 137.837  139.311  285.704        61.89
  12.650  154.539  266.440        61.89
 170.042   58.166  305.863        61.89
 323.406  146.749  170.498        61.89
 344.836  123.559  248.627        61.89
   3.850  111.535  237.485        61.89
 195.080  130.553  343.261        61.89
 335.611   27.552   47.842        61.89
  47.775   74.225  191.090        61.89
  37.051  114.329  238.299        61.89
   8.741  136.035  246.136        61.89
   9.823   78.863  218.076        60.48
 355.802  117.837  258.831        60.48
 305.317  135.892  196.601        60.48
  19.578  114.085  233.536        60.48
 236.487   52.179  264.917        60.48
 347.743  124.521  208.161        60.48
 242.958  114.651    2.661        60.48
 152.076   47.884  124.934        60.48
  84.149   13.516  349.425        60.48
 312.106  156.806  243.065        60.48
 176.665  100.950  336.777        60.48
 147.731  153.716   94.978        60.48
 347.678  128.012  229.894        60.48
 357.032  128.673  262.096        60.48
 340.043  140.499  208.118        60.48
 134.464   44.405  169.663        60.48
 354.509  135.063  215.475        60.48
 158.274  138.268   89.194        60.48
 202.234  144.871  340.068        60.48
 353.100   45.869   74.599        60.48
 161.189  122.159  133.717        60.48
 341.760   79.661  243.952        60.48
 278.289  122.956  191.233        59.07
 166.531   83.864  125.665        59.07
 177.827   88.137  153.351        59.07
   0.249   65.378   49.484        59.07
 194.934  139.289  305.874        59.07
 344.125  127.111  237.647        59.07
 315.473   34.465   46.627        59.07
 181.561  118.221  105.591        59.07
 315.690   38.456  262.037        59.07
 356.799  104.664  202.094        59.07
 130.892  141.985   30.474        59.07
 170.466   34.348  269.480        59.07
 108.571   34.995  316.687        59.07
 180.918  150.926   20.954        59.07
   3.767   97.302  220.789        59.07
  28.350  133.312  269.825        59.07
  15.055  123.274  191.855        59.07
 290.211  157.065  179.750        57.67
  85.320   31.536    2.586        57.67
 356.191   76.720   64.830        57.67
 164.029  150.712  297.907        57.67
 301.158  137.861   62.761        57.67
 348.852  134.843  178.334        57.67
   3.064  111.271  261.547        57.67
 347.138   32.282   26.624        57.67
   6.850  142.680  201.162        57.67
 191.352  138.357  332.368        57.67
 169.781  123.934   84.318        57.67
 346.362   29.392   51.462        57.67
 150.602  133.214  322.795        57.67
 177.559  100.581  309.141        57.67
 264.217   26.456  138.175        57.67
 187.022  118.051  319.657        57.67
 225.919  153.595  309.430        56.96
 179.427  134.837  145.866        56.26
   0.651   70.290   48.009        56.26
   3.946  154.139  239.903        56.26
 335.862  150.645  221.525        56.26
 354.409   57.105   70.320        56.26
 356.976  131.514  213.310        56.26
 251.072   15.502  123.301        56.26
 357.092   36.235   53.168        56.26
  11.704   34.896   57.046        56.26
 140.907   52.174  151.999        56.26
  11.514   70.582   57.168        56.26
 117.273   88.095  140.869        56.26
  88.287   27.742  209.531        56.26
 178.455  109.438  320.698        56.26
 175.572   23.203  251.092        56.26
   9.563   72.691   82.419        56.26
 335.940   27.302   16.957        56.26
 168.700   41.184  315.156        56.26
 306.069  139.065  112.524        56.26
 218.247   91.059  334.758        54.85
 180.803   87.855  159.130        54.85
 345.009   46.637   45.195        54.85
 191.835  111.558  156.132        54.85
 170.544   38.749  158.982        54.85
 177.722   38.895  344.835        54.85
 106.980   26.452  294.776        54.85
 359.030  126.523  252.982        54.85
 142.412   55.032  107.112        54.85
   3.070   55.249   47.243        54.85
 359.859   79.115   40.646        54.85
 187.526  108.823  314.213        54.85
 352.043   87.552  264.483        54.85
 114.141   51.304  125.176        54.85
 340.449  127.237  222.985        54.85
 174.305   89.191  144.463        54.85
 316.491  174.948   85.317        54.85
   2.846  112.909   32.103        54.85
 195.072  126.123  144.771        54.85
 333.199   56.284   57.744        54.85
 152.670  155.432   12.735        54.85
 301.207  153.951  196.884        54.85
 354.707  138.547  223.985        54.85
 347.736   37.049   84.819        54.85
 358.465  144.446  238.757        54.85
 335.960   34.166   80.699        54.85
 172.193  129.074  323.832        54.85
 199.705  113.079  159.315        53.45
 211.861   19.578   72.573        53.45
 218.975    8.109  323.308        53.45
 194.109   78.330  307.910        53.45
 189.946   47.099  350.716        53.45
   0.066   55.639   30.203        53.45
  11.133  146.310  231.399        53.45
 347.394  144.058  224.567        53.45
 244.015   28.204  198.670        53.45
 180.424   66.671  149.130        53.45
 187.927   98.347  307.159        53.45
 257.809  156.453  355.661        53.45
 351.311   92.412  250.513        53.45
 210.573  153.767   98.238        53.45
   1.946  143.827  230.241        53.45
 358.305  103.475  259.637        53.45
  16.012  127.545  221.256        53.45
   9.711   25.374   67.282        52.04
 195.068   53.755  151.673        52.04
 100.071   30.967  335.977        52.04
 180.546   97.217  100.535        52.04
  83.804   42.852  180.656        52.04
 199.116  155.596    1.315        52.04
 172.016  102.085  145.806        52.04
 177.564   41.413  310.493        52.04
 182.861  147.851   94.452        52.04
 162.558   61.649  154.543        52.04
  38.362  132.033  232.098        52.04
  84.622  151.966  340.398        52.04
 309.140   35.809   81.414        52.04
 342.139  129.955  176.520        52.04
   5.160   51.752   39.861        52.04
 356.078  105.615  206.501        52.04
 340.943  125.792  197.600        52.04
 349.864  145.445  210.986        52.04
  15.224   33.407   10.842        52.04
 167.852   63.225   28.594        52.04
 187.409  108.174  323.361        52.04
 271.695  157.187  157.479        52.04
 220.932   28.873  309.488        52.04
 347.346  113.968  265.649        52.04
 219.340   31.089  316.716        52.04
 175.684   75.531  142.475        52.04
 275.757   38.215  273.715        52.04
 345.688   92.323   41.047        50.63
 182.467   29.277  142.239        50.63
 165.681   24.815  274.474        50.63
 327.004   35.947   32.879        50.63
   0.718   64.123   30.394        50.63
  72.786  143.346  234.312        50.63
 190.840  130.071  317.144        50.63
 191.977  124.143  138.106        50.63
  15.437  124.906  264.807        50.63
 133.806   34.795  320.789        50.63
  22.108  137.344  225.006        50.63
  15.206   37.029   26.015        50.63
  12.754   22.874   31.622        50.63
 348.819   34.980   65.882        50.63
   2.622   61.073  214.226        50.63
 237.824   32.978  305.333        50.63
 164.980  149.027   11.115        50.63
 318.518   30.019   89.048        50.63
  34.212  131.115  258.794        50.63
 184.280  161.612  284.914        50.63
 170.229   87.362   94.086        50.63
 351.941   32.691   76.833        50.63
 171.766   40.318   54.589        50.63
 358.583   46.007   60.464        50.63
 168.712  120.022  119.700        50.63
  20.521   48.730   36.322        50.63
   0.978  124.277  231.651        50.63
 341.657   48.963   58.057        50.63
 158.092   62.867  318.904        50.63
 205.370  149.831   14.047        49.23
 160.872  123.462   93.878        49.23
 353.141   93.127  260.475        49.23
 305.473   14.817   53.721        49.23
 165.264  156.926  286.531        49.23
   8.211   91.584  228.130        49.23
 194.281   72.944  151.213        49.23
 166.943  137.755  334.888        49.23
 337.763  108.085  225.032        49.23
 183.717   86.451  154.531        49.23
 188.378   48.738  297.856        49.23
 349.419  126.381  228.847        49.23
 358.974  131.340  249.222        49.23
 198.268   50.766  147.455        49.23
 195.592   63.207  320.531        49.23
 184.698   83.076  101.944        49.23
 358.264   97.211  215.202        49.23
 355.705  146.410  208.674        49.23
 194.105   80.845  346.472        49.23
 338.166  153.701  216.716        49.23
 278.691   14.824  192.420        49.23
  97.440   24.703  275.136        49.23
 177.174  121.815  152.805        49.23
 328.669  136.232  244.573        49.23
 356.690   43.534   55.033        47.82
  28.410   45.902   17.876        47.82
  16.269   39.574   11.822        47.82
 161.085  140.565   96.852        47.82
 181.878   78.000  333.744        47.82
 167.962   20.505  227.878        47.82
 159.770  150.148  359.330        47.82
   2.334   48.622   34.466        47.82
 182.534   95.813  153.331        47.82
  14.344  164.905  283.327        47.82
 185.249   78.587  319.769        47.82
 326.372   54.575  248.740        47.82
 158.152   84.359  165.020        47.82
  10.818  122.607  253.564        47.82
 332.571  129.004  188.314        47.82
  56.151  150.179  214.665        47.82
 293.522   30.937   50.134        47.82
 340.493  114.540  214.812        47.82
 350.013  125.099  268.790        47.82
 359.266  104.036  262.403        47.82
 254.276   55.319  331.400        46.41
  39.540    9.395   36.690        46.41
 341.255  139.743  227.788        46.41
   3.283  106.773  235.604        46.41
   3.470  143.757  235.181        46.41
 336.351  145.903  217.614        46.41
   7.444  128.941  220.904        46.41
 191.301  140.893  330.022        46.41
 203.532  169.057  108.416        46.41
  13.126   44.302   34.560        46.41
 316.725  155.010  184.309        46.41
 192.880   18.816  213.551        46.41
  91.790   20.711   20.610        46.41
 353.994  114.415  212.053        46.41
 184.563  129.406  181.469        46.41
  11.739   79.836  216.046        46.41
  19.603   45.433   24.842        46.41
 358.449   34.299   53.160        46.41
 350.572   54.897  212.872        46.41
  94.091   10.968  330.837        46.41
  76.739   30.929  340.282        46.41
 295.933  146.394  191.026        46.41
 177.939   64.317  148.310        46.41
 206.147  119.549  314.772        46.41
 158.214  116.818  167.505        46.41
 285.606   24.646  121.299        46.41
 168.087  141.750   46.639        46.41
   6.086  133.368  225.033        46.41
 162.472  167.594  333.628        46.41
 327.746   10.069   45.967        46.41
 157.560  134.532  109.954        46.41
 190.522   52.665  312.647        46.41
 225.099  143.740   18.642        45.01
  24.231   42.498    8.616        45.01
   1.802   36.763   46.416        45.01
 176.235  125.435  325.976        45.01
 168.589  150.223  331.220        45.01
 169.729  138.086  339.235        45.01
 165.399  141.467  342.748        45.01
  11.071   26.148   24.084        45.01
 156.882   54.724  142.882        45.01
 336.761   47.427   62.094        45.01
 351.796   69.343   51.003        45.01
 254.532  108.451  329.678        45.01
  22.958   51.430   41.993        45.01
 355.610   41.493   46.762        45.01
 117.081   25.727  183.013        45.01
 170.637   88.884  342.562        45.01
   5.794   36.493   63.523        45.01
 261.878   68.202  338.154        45.01
   9.900   54.344   66.179        45.01
 352.529   70.716   31.827        45.01
 199.488  112.149  325.353        43.60
   1.187  146.542  249.037        43.60
 349.503  137.285  228.228        43.60
 181.443   85.308  325.850        43.60
  60.724  124.195   65.066        43.60
 314.463  143.192  214.642        43.60
 174.271  147.301   99.571        43.60
 208.733   34.790  304.858        43.60
 224.976   40.505  305.603        43.60
 351.392  134.359  243.205        43.60
 200.944  145.201  103.564        43.60
 159.914  148.783  274.844        43.60
 344.216   71.829  256.081        43.60
 164.564   38.900  295.189        43.60
 175.641  164.999   21.166        43.60
 359.562  143.217  198.705        43.60
 169.516   56.428    9.092        43.60
 148.871  117.116  163.969        43.60
 359.604   69.830   38.067        43.60
 182.495  122.511  166.439        43.60
 196.733  153.272  332.477        43.60
   9.221   46.369   40.666        43.60
  34.355   46.853  203.610        42.20
 179.872  106.076  329.718        42.20
  20.996   54.032   42.308        42.20
  24.270  102.745  219.506        42.20
 182.671  114.552   98.546        42.20
 172.096  152.958  353.408        42.20
 160.699  153.352  331.497        42.20
   1.704   87.460  215.638        42.20
 168.894  126.780  102.857        42.20
  36.961   39.887  202.350        42.20
 344.693  152.313  222.462        42.20
 171.682  107.421   96.171        42.20
 116.138   80.795  158.222        42.20
  83.725  146.980  289.113        42.20
  19.078   38.534   54.406        42.20
 330.639  154.451  234.759        42.20
  12.336  121.163  199.695        42.20
   2.908   96.970  250.399        42.20
 157.645  163.465   70.959        42.20
 154.155  152.418  314.871        42.20
 168.326   98.469  145.446        42.20
 169.536   86.425  327.042        42.20
 229.518   26.041  111.167        42.20
 345.811  135.206  231.408        42.20
  88.453   27.777  264.497        42.20
 266.679   33.454   80.696        42.20
 155.025  155.677  358.935        42.20
  32.576  132.877  267.631        42.20
 330.195  143.604  208.701        42.20
 350.493   36.465   38.170        42.20
 158.204  103.891  337.517        42.20
 214.219  129.302  345.302        42.20
 345.689  135.599  211.584        40.79
 185.085  128.721  111.540        40.79
 186.543  130.697   93.694        40.79
 125.875  143.090  316.798        40.79
 347.711   79.406   28.479        40.79
 104.344   30.150  175.693        40.79
 359.954  124.161  261.376        40.79
 188.676  129.178  156.832        40.79
  13.006   34.965   46.468        40.79
 181.058  107.626   92.345        40.79
 162.719   23.225  275.749        40.79
 350.713  102.692   34.649        40.79
 340.460   41.168   80.204        40.79
 164.910   30.265   49.147        40.79
 239.889  164.471   57.686        40.79
  14.196   88.561  250.090        40.79
  27.414  134.541  202.352        40.79
 172.749   98.892  145.144        40.79
 155.996  151.072  330.544        40.79
 173.916  124.813  106.887        40.79
 318.544  132.332  224.608        40.79
 171.970  101.584  322.521        40.79
 349.273   77.174   46.999        40.79
 131.643   50.262  327.566        40.79
 333.566  151.892  202.297        40.79
 167.676  136.134  333.115        39.38
   3.183  131.493  235.759        39.38
  86.498  159.156  242.887        39.38
 186.369  136.945  125.848        39.38
 330.434   14.911   61.414        39.38
  20.219  135.404  244.732        39.38
 210.384  120.432  178.394        39.38
 348.400  156.707  177.749        39.38
 199.030   47.378  353.329        39.38
 179.784   96.844  124.304        39.38
 159.625   56.310  156.518        39.38
 356.753  167.934  265.398        39.38
 157.702  116.914  336.472        39.38
 168.610   79.045  151.897        39.38
  10.853  156.175  259.079        39.38
  79.226  141.801   83.090        39.38
 162.911   84.853  329.447        39.38
  74.244  143.283  253.471        39.38
 204.556   75.736  328.457        39.38
 315.068  121.482  220.302        39.38
   3.910  115.190  209.686        39.38
 209.972   32.113  342.819        39.38
  12.115  105.210  208.838        39.38
   6.630   67.517   69.968        39.38
 166.420  131.238  129.665        39.38
   5.711  117.657  257.404        39.38
 175.947  127.134  131.454        39.38
 166.671  109.092  350.266        39.38
 283.817  159.344  124.703        39.38
 359.974   90.013  263.440        37.98
 354.453  134.243  258.913        37.98
 313.840  120.404  241.686        37.98
   2.677  142.726  226.700        37.98
 190.492  111.010  148.324        37.98
 320.580   68.533   44.947        37.98
 186.157  152.011   23.035        37.98
 202.615   43.501  105.681        37.98
 356.636  142.096  252.521        37.98
 354.605   96.751  261.624        37.98
  40.459  156.703  262.254        37.98
 304.976  130.775  206.768        37.98
 357.262   52.762   33.784        37.98
 352.773   36.157   33.783        37.98
  22.275   29.050   37.169        37.98
 201.144  155.422  152.130        37.98
 198.534   20.562  340.492        37.98
   8.913  163.798  229.609        37.98
 185.617  127.059   99.857        37.98
 326.405   24.437   33.713        37.98
  17.270   34.231   34.614        37.98
   3.054   55.697   83.524        37.98
 342.545  123.115  211.233        37.98
 337.992  148.014  164.268        37.98
  42.035   48.672   56.664        37.98
 185.394  138.791   34.304        37.98
 320.682   24.005   55.974        37.98
   0.529  129.366  208.075        37.98
 356.004   48.356   63.789        36.57
  35.331  138.131  250.857        36.57
 144.211  142.658  116.823        36.57
 355.049  105.827  227.856        36.57
  85.832  150.423  338.134        36.57
  19.008  129.208  228.775        36.57
 196.986  132.798  141.523        36.57
 341.892   80.659   68.099        36.57
 298.262   36.410  289.982        36.57
  10.456  158.186  261.328        36.57
 175.349  103.593  102.361        36.57
  15.651   82.327   62.678        36.57
  15.675  139.010  237.348        36.57
 337.659   94.220   86.228        36.57
 358.262   80.926   53.168        36.57
 344.061  122.019  227.210        36.57
   4.358   57.593  217.633        36.57
 166.084   49.118  323.723        36.57
 175.672  119.599  117.358        36.57
 275.576  149.056  157.927        36.57
   0.090   79.425   31.381        36.57
 295.991   22.349   61.477        36.57
 239.925  160.211  114.976        36.57
 124.582   35.610  312.946        36.57
  55.660  142.369  289.626        36.57
  26.380   52.840   50.730        36.57
 179.309  105.209  342.695        36.57
 346.765  104.870  214.757        36.57
 189.128   43.258   11.173        36.57
 167.608  110.301  148.545        36.57
 330.545  126.082  242.950        35.16
 174.056   74.557  333.404        35.16
 348.756   80.186   42.098        35.16
 176.456   93.010  145.774        35.16
 182.287   82.929  174.646        35.16
 359.328   48.462   47.557        35.16
 352.865  135.050  225.926        35.16
  28.792  147.966  156.490        35.16
 329.144   38.417   92.463        35.16
  17.000   48.351   36.760        35.16
 358.159   88.506  216.353        35.16
 206.653  125.568  134.947        35.16
   1.435   19.267   36.616        35.16
 215.973   30.741  320.190        35.16
 147.146   18.793   30.535        35.16
  14.113  145.101  129.315        35.16
  50.970   29.282  343.689        35.16
  42.944  141.203  265.666        35.16
  26.690   58.393   36.506        35.16
 278.236   31.629  113.460        35.16
 333.548   47.099  256.061        35.16
 349.989   88.314   40.676        35.16
 349.778   77.221  249.174        35.16
  44.231   26.854   41.063        35.16
 342.839   23.182   64.481        35.16
 153.850  119.386  105.660        35.16
 337.670  135.087  194.303        35.16
 128.890  106.565  153.530        35.16
 149.480  103.127  329.398        33.76
  11.821   46.816   22.709        33.76
 348.278   53.859   35.993        33.76
 216.008  147.696  349.111        33.76
  64.187   27.690    0.090        33.76
 108.642   89.417  150.959        33.76
 178.331   90.294  145.846        33.76
 354.904  108.514  207.370        33.76
 242.522   26.051   53.510        33.76
   5.144   89.909   83.401        33.76
 146.110  147.912   69.437        33.76
 340.002   41.661   68.537        33.76
 190.270  152.540   26.164        33.76
 188.626   80.849  317.418        33.76
  21.353   60.775   42.878        33.76
   0.956  101.893  251.413        33.76
 187.608   99.458  326.896        33.76
  25.358  137.482  235.259        33.76
 354.017  102.482   82.087        33.76
 212.791  149.615  346.657        33.76
  82.652  153.717    6.490        33.76
  14.693  137.540  249.130        33.76
 146.620  156.191  256.241        33.76
 299.550   47.042   29.323        33.76
 319.638   37.898  261.477        33.76
 352.360   80.220   64.922        33.76
 127.759  112.726  142.669        33.76
 226.525   48.324  293.993        33.76
 192.666   28.402  320.261        33.76
 132.822   10.307  283.378        33.76
 228.606  103.557  331.558        33.76
 359.879  144.191  230.629        33.76
   1.082   97.566  205.225        32.35
 189.056   90.045  156.588        32.35
  39.790  162.789  236.106        32.35
 171.737  112.621  150.520        32.35
 312.731   54.036  248.727        32.35
 185.757   60.605  166.829        32.35
 185.620   77.291  145.502        32.35
 182.874   91.345  353.458        32.35
 351.660  114.471  220.288        32.35
 238.523   75.315  328.510        32.35
 182.324  114.338   89.782        32.35
  90.465  150.087  327.159        32.35
 344.152  165.247  132.229        32.35
   5.749   47.922   40.803        32.35
   5.959   37.166   57.073        32.35
  14.945  155.953  229.885        32.35
 353.702  111.288  253.267        32.35
 209.429   91.749  322.554        32.35
  51.840   33.351   17.529        32.35
 171.791   94.369  331.516        32.35
 319.829  113.252  210.799        32.35
  27.891  169.399  247.584        32.35
  17.571  145.845  258.644        32.35
 103.521   97.979  141.394        32.35
 169.597  131.626   91.993        32.35
 185.848   83.421  153.965        30.94
   3.309   40.176   21.625        30.94
 212.119   83.978  146.400        30.94
 165.001  119.060  331.526        30.94
 349.863   90.096  260.832        30.94
  64.036   26.536  354.162        30.94
   4.430  140.580  238.792        30.94
  30.162  134.918  255.471        30.94
  43.559  161.549  257.351        30.94
 188.316  120.251  125.086        30.94
 132.963  143.543  328.727        30.94
  11.246   37.927   22.766        30.94
 241.401  108.375  347.781        30.94
  21.101   35.009   33.866        30.94
 353.639  126.793  177.316        30.94
   6.959  119.914  255.796        30.94
 283.568  116.168  220.130        30.94
 354.555  126.201  246.277        30.94
 172.051   34.624  255.511        30.94
 352.062   91.264  245.519        30.94
 255.635  125.912  339.634        30.94
  68.157  174.933  279.288        30.94
 350.178   45.621   53.134        30.94
 191.235  122.916  350.488        30.94
   3.059   82.447  209.474        29.54
 169.418   47.903  143.952        29.54
 190.830  110.544   96.967        29.54
 156.704   43.439  151.206        29.54
 169.734   82.449  165.897        29.54
  17.215   23.538   41.038        29.54
   0.186   88.945  212.627        29.54
 194.905  139.596  354.997        29.54
 161.269   92.635  336.923        29.54
 225.835  135.925  206.419        29.54
 218.050  139.577   25.460        29.54
   2.433  155.034  147.757        29.54
 356.525   62.246   43.674        29.54
 173.684  110.005  104.953        29.54
   6.778   43.346   37.379        29.54
  12.295  142.364  268.161        29.54
 302.001  158.969  232.858        29.54
  10.972  122.836  235.655        29.54
 301.760  150.309  110.261        29.54
 248.355  122.910  167.812        29.54
   4.216   75.773  211.981        29.54
   2.484   55.287   50.570        29.54
 202.106   45.032  141.106        29.54
 200.164   72.362  317.993        29.54
 354.571   81.019   37.641        28.13
 344.992   44.045   34.423        28.13
 324.490  136.406  147.335        28.13
 341.349   86.279   78.540        28.13
 212.487  134.724    6.214        28.13
 177.219   26.990  334.609        28.13
  23.429   28.091   35.443        28.13
 345.043  143.640  214.876        28.13
 216.452   39.188  262.711        28.13
  11.977  150.006  197.641        28.13
 223.296  165.067   52.059        28.13
 348.798  134.993  203.800        28.13
 174.719  132.542    2.255        28.13
  76.930  141.310  343.025        28.13
  20.967   85.576   49.454        28.13
 136.138  147.544  284.809        28.13
 174.744  140.289   99.263        28.13
 297.110  148.532  202.536        28.13
 126.380  122.611  299.158        28.13
 229.260  160.920   52.191        28.13
 355.922   99.308  258.490        28.13
 354.819  129.565  195.799        28.13
 159.459   79.138  140.661        28.13
   4.039  112.596  219.667        26.72
 321.090  161.268  220.406        26.72
   0.702  100.763   36.527        26.72
 358.971   21.950   54.533        26.72
   5.977  124.090  210.750        26.72
 337.006  125.120  230.069        26.72
 349.330  153.051  222.989        26.72
 233.299  156.163  111.667        26.72
 343.587   95.125   31.097        26.72
 196.091   88.574  328.659        26.72
   3.580   89.920   32.391        26.72
  13.940   17.962   41.575        26.72
 280.460  142.366  188.018        26.72
 321.926  120.783  199.597        26.72
 167.621   24.830  274.009        26.72
 325.680  150.012  205.717        26.72
 265.932   84.855  265.687        26.72
  38.414   48.207  241.250        26.72
  27.372   38.789   18.879        26.72
 169.561   42.557  145.161        26.72
 215.154  145.140  131.075        26.72
 170.728  136.363  110.770        26.72
  14.071  131.854  262.795        26.72
 336.033  141.060  217.159        26.72
 163.230   46.755   19.600        26.72
   3.628   81.119  212.469        26.72
  22.251   40.133   17.041        26.72
 202.487   18.226  224.460        26.72
 358.505  153.500  196.804        26.72
 344.239  147.039  214.171        26.72
 348.432  147.362  211.479        26.72
 344.027  152.760  222.604        26.72
 250.481  168.555  160.539        26.72
 210.957  162.973  335.470        26.72
 137.953   41.321  342.571        26.72
 351.883   95.661   42.995        26.72
 176.056  115.594  330.777        26.72
  12.193  104.382  235.641        25.32
 172.345  127.593  332.645        25.32
   1.070  140.514  237.755        25.32
   4.825   51.311   41.576        25.32
 210.994   33.779  326.223        25.32
 353.586  147.893  165.928        25.32
 341.817  155.654  209.100        25.32
  15.237   91.462  220.032        25.32
 339.362   50.749   35.203        25.32
  11.465  101.971  226.740        25.32
   6.127   98.559  232.230        25.32
 359.940  142.316  245.154        25.32
 185.388  105.904   97.773        25.32
 154.764   56.606  151.530        25.32
 185.406   96.544  140.010        25.32
  70.504   25.307   21.295        25.32
   8.382   68.265   57.969        25.32
 220.241   21.156  121.325        25.32
 325.251  134.387  207.656        25.32
  15.260   50.303   23.659        25.32
 352.887   95.621  221.831        25.32
 353.082   35.687   38.211        25.32
 173.475  140.525   90.689        25.32
 346.984  143.435  205.009        25.32
 185.905   88.642   52.152        25.32
  32.480   43.490  117.363        25.32
 353.995   59.288   15.467        25.32
 168.239  138.386  345.556        25.32
 178.852  118.109  325.200        25.32
   4.770  135.587  212.927        23.91
   8.940  148.698  278.793        23.91
 168.266   76.380  150.157        23.91
 218.134  142.330  311.415        23.91
 217.382  129.213  177.951        23.91
  48.999  168.319  307.726        23.91
 199.355   57.437  266.120        23.91
 184.083  110.652  326.797        23.91
   7.907   36.365   36.360        23.91
 140.466  160.907  355.905        23.91
 345.682  131.165  242.817        23.91
 156.145  152.751  265.270        23.91
 185.858   98.699  162.137        23.91
  27.064  151.010  250.454        23.91
 166.167   58.700  169.319        23.91
 171.750   90.039  335.881        23.91
  12.547  137.514  265.647        23.91
 346.130   96.661  246.247        23.91
 179.361  130.319  336.863        23.91
 163.013  112.218   94.392        23.91
 299.402   29.451   63.298        23.91
   4.421  158.081  252.241        23.91
 352.550  134.555  250.485        23.91
  99.583  145.775   71.314        23.91
 164.554  145.630  333.711        22.74
 134.690   21.025  198.656        22.50
 319.207   30.284   66.342        22.50
   4.026  159.046  257.438        22.50
   7.966  139.371  231.640        22.50
  15.803  135.095  214.729        22.50
 340.702   77.933  244.010        22.50
 327.175  138.469  211.480        22.50
  19.092  103.474  227.615        22.50
  92.201  141.730  290.171        22.50
 168.865  100.573  333.013        22.50
 166.334   75.401  183.567        22.50
 175.829   33.039  243.504        22.50
 139.953   37.452  289.821        22.50
 198.851  146.512   10.486        22.50
 210.282  127.518  163.431        22.50
  35.373  100.913  222.379        22.50
 101.651   53.214  336.057        22.50
 199.484  149.665  113.932        22.50
 341.979  112.342  248.702        22.50
 189.242   97.397  171.971        22.50
 172.802  169.686    3.919        22.50
 333.867  155.973  232.520        22.50
 106.284   34.043  288.645        22.50
 326.867   53.165   29.757        22.50
 117.482  161.177   39.094        22.50
 234.997  154.036   64.994        22.50
  38.261   43.368   10.461        22.50
 330.537   35.951   23.283        22.50
 186.801   96.694  334.083        22.50
 286.745  131.358  235.282        22.50
  92.660  171.713  188.255        22.50
 298.149   19.935  303.348        22.50
 183.365  109.222  346.513        21.57
 142.128  144.229   64.675        21.10
 191.999  108.667  141.256        21.10
 196.232  145.904  144.912        21.10
 359.368  144.332  209.083        21.10
  12.076   71.936  246.491        21.10
 163.574   71.715  322.134        21.10
 338.949  146.404  211.832        21.10
  22.348  123.823  239.777        21.10
 148.082   73.521  151.402        21.10
 150.371    9.347  167.069        21.10
 180.421   96.203  325.031        21.10
 107.041  141.040  134.060        21.10
 202.311  140.081  354.208        21.10
 165.743   89.835  336.473        21.10
 311.663   89.604  245.385        21.10
   8.124   41.555   42.421        21.10
 354.355   67.082   27.890        21.10
 298.893  164.313   78.455        21.10
  13.369   41.615   38.980        21.10
 227.074   18.336   97.948        21.10
  17.975   34.931   56.598        21.10
 358.285   41.312   66.119        21.10
  31.527   55.408  208.144        21.10
 332.595   81.335   24.345        21.10
 188.163  114.681  324.850        21.10
 140.550   28.589  267.238        21.10
 352.500  102.227   43.593        21.10
 346.043  117.146  252.892        21.10
  65.348  150.194   55.778        21.10
 206.123  138.691  327.452        21.10
 334.838   20.177   60.858        21.10
 342.171  142.985  216.770        21.10
  16.056  140.242  190.870        19.93
 251.917  157.595   92.555        19.69
 195.571  123.212  354.166        19.69
 182.978  162.608  122.590        19.69
  32.520  140.481  259.009        19.69
 243.285   58.213  326.006        19.69
  36.634  158.220  288.168        19.69
 174.044  105.420  341.481        19.69
  24.794   32.367   26.223        19.69
   9.871  141.695  235.800        19.69
   0.670   91.975  199.265        19.69
 247.760  121.507  359.416        19.69
   8.791   99.832   50.218        19.69
  12.996  100.555  236.565        19.69
  12.984   97.516  221.278        19.69
 346.204  116.043   26.537        19.69
 178.917   79.182  310.199        19.69
 336.217  108.660  238.685        19.69
 243.265   32.201   97.555        19.69
   5.642   34.826   36.590        19.69
 180.389  125.499  121.970        19.69
 202.034   71.090  332.223        19.69
 179.279   52.671  348.463        19.69
 228.525  128.216  192.417        19.69
  27.762   31.422   17.690        19.69
 170.298  117.116  122.582        19.69
   7.852   37.132   60.241        18.28
 174.777   78.693  147.719        18.28
 178.574   36.128  344.135        18.28
 182.636   42.858   13.091        18.28
 347.884  100.743  248.617        18.28
  17.547  148.302  259.664        18.28
 177.903   44.690  288.810        18.28
 162.657   82.701  338.398        18.28
 160.389   39.287   15.280        18.28
 167.025   38.305   25.685        18.28
 175.884   92.349  313.697        18.28
 333.087   71.197  271.246        18.28
 214.296  120.771  153.583        18.28
   1.602  116.086  237.278        18.28
 344.488  121.320  203.508        18.28
  14.405  137.490  218.384        18.28
  14.480   71.800  216.228        18.28
 337.974  149.144  171.539        18.28
   2.404  118.090  222.505        18.28
 157.368   40.380  305.255        18.28
 124.149  130.664  337.596        18.28
 357.227   37.017   48.428        18.28
 195.192  134.531  324.727        18.28
 128.147  130.504   96.370        18.28
   5.066   78.192  203.794        18.28
 149.263  163.911  337.390        18.28
 329.519   29.410   30.923        18.28
 338.531  142.491  167.833        18.28
 282.195  136.509  225.215        18.28
 159.394  114.010  146.868        16.88
 191.594   57.082  146.574        16.88
 202.025   50.964  285.955        16.88
 114.675   86.150  176.499        16.88
 134.694   47.564  304.564        16.88
 334.897  152.182  220.647        16.88
 196.700  155.441  347.873        16.88
   0.383   84.893  227.612        16.88
  85.307  139.767  339.585        16.88
  75.600   23.005  355.275        16.88
 324.946  124.395  223.574        16.88
 337.404  139.369  196.628        16.88
   8.869  119.148  244.638        16.88
 358.553   92.230  258.655        16.88
 217.918   41.072  225.828        16.88
 119.330   62.170  132.760        16.88
 335.300  146.986  220.673        16.88
 175.016  109.421  146.628        16.88
  34.386   46.883   23.179        16.88
 175.272   13.839   83.544        16.88
  69.189  146.968  232.627        16.88
 359.398  115.401  223.529        16.88
 358.491  126.602  246.992        16.88
 186.961  151.018    4.027        16.88
 338.643   37.910   31.053        16.88
 338.505   40.593   79.179        16.88
  19.931   72.791   50.709        16.88
   7.102  107.877  209.237        16.88
 169.345  117.075  113.167        16.88
 327.475  152.707  202.207        16.88
 106.292   97.292   31.865        16.88
 146.083  132.853  147.204        15.47
  35.273  146.766  221.702        15.47
 346.318   39.129   51.019        15.47
 189.142   78.373  152.828        15.47
  13.374   36.373   27.813        15.47
  19.276  123.706  209.777        15.47
 333.104   42.342   86.092        15.47
  11.718   37.237   20.649        15.47
 345.903   40.514   70.926        15.47
   5.997  133.508  221.009        15.47
 355.731   41.177   49.468        15.47
 197.286  139.658   85.117        15.47
 286.953  143.959  212.164        15.47
  17.053  136.283  266.544        15.47
 197.262   57.328  336.442        15.47
 350.307  152.807  238.213        15.47
 172.916  111.927   97.907        15.47
 196.052   90.008  319.538        15.47
 348.122   37.161   93.433        15.47
  19.405   57.472   51.505        15.47
 356.252   96.282  263.928        15.47
 353.211  165.279  151.578        15.47
 223.729  146.506   52.217        15.47
   4.085   28.987   30.506        15.47
 116.361   91.574  167.047        15.47
 331.032   51.109  268.215        15.47
 341.807   58.071   44.212        15.47
 192.254   38.398  300.333        14.07
 316.556    8.048   73.276        14.07
 299.039   13.442  132.935        14.07
  17.519  144.406  269.993        14.07
 343.298  125.586  221.652        14.07
 206.854   42.637  349.671        14.07
 300.376  110.401  215.816        14.07
 285.220   49.187  290.091        14.07
 198.573  106.140  335.455        14.07
 251.363  101.909  118.705        14.07
 181.768   26.106  347.102        14.07
 190.684   72.746  327.131        14.07
  18.754  121.157  227.329        14.07
 352.997  146.493  207.139        14.07
 289.998  138.272  187.840        14.07
 355.515  102.670  213.299        14.07
 281.865   61.086   30.632        14.07
  31.046   84.397  209.680        14.07
 191.251  121.102  172.242        14.07
 176.441   81.956  333.403         5.63
 353.810   98.420  253.930         4.69
 180.824  131.515  133.967         4.22
   0.395   79.779   35.597         4.22
 338.254  100.469  262.756         3.28
 190.330  103.935  339.738         3.05
 171.710   89.057  142.565         2.81
 180.267  150.127  357.108         2.81
  47.415   35.693   34.093         2.81
 160.102   73.275  155.327         2.81
 179.270   59.505  145.500         2.81
   9.511  139.496  212.845         2.81
 183.194   95.559  328.981         2.81
 250.162   24.737   32.580         2.34
 218.765  140.991  330.907         1.64
 333.905   23.782   43.392         1.64
 196.566   39.523  107.009         1.64
  77.608   27.723    4.833         1.41
 230.541  139.717  347.142         1.41
 186.719   74.557  158.086         1.41
 176.932  126.445  335.843         1.41
 192.729  154.894   41.747         1.41
 358.908   35.747   61.619         1.41
 197.574   33.008  349.791         1.41
 184.429   67.767  158.956         1.41
  11.308   28.159   37.590         1.41
  42.935  167.822  306.223         1.41
 196.612   43.253  287.887         1.41
 188.068   89.318  154.174         1.41
  43.252  154.819  240.362         1.41
  10.252   72.495  237.656         1.41
 177.206   70.344  155.703         1.41
 359.436  108.766  249.147         1.41
 345.937  136.584  216.980         1.41
  21.924  116.861  230.629         1.41
 135.618  139.878  109.103         1.41
   2.139   21.246   44.291         1.41
 169.836   79.528  151.385         1.41
 176.248   57.173  328.545         1.41
  20.745  151.969  242.702         1.41
   1.730  141.650  222.983         1.41
  16.497   33.939   24.628         1.41
 122.282  123.084   94.184         1.41
 345.999  103.026  258.690         1.41
 353.973  123.088  226.429         1.41
 337.542   98.310   29.765         1.41
 270.465  150.756  157.018         1.41
  97.723   40.167  333.320         1.41
 199.900   54.232  333.311         1.41
 352.763   78.509   60.287         1.41
  20.822   46.515   13.205         1.41
 358.334   47.552   30.512         1.41
