TEXTURE AT STRAIN = 0
1.0   1.0   1.0
DISCRETE TEXTURE FROM ODF FILE RD_625C_5
B 4163
  41.627  152.566   42.118      4122.00
 345.749  139.572  334.454      3402.00
 176.642   74.997  274.929      3343.00
  29.340   37.303  217.634      2777.00
  37.817  151.363  337.202      2774.00
 165.896  138.570   58.846      2597.00
 218.132   34.283   79.603      2581.00
 176.188   71.772  262.965      2562.50
 173.105   44.338  305.040      2532.00
 173.656  145.528  153.528      2514.00
 165.643   53.304  134.799      2459.00
 293.064   22.085  270.757      2334.00
  19.593  145.399   27.489      2263.00
 196.154  148.013  198.847      2236.00
 209.217   48.447  279.213      2229.00
  30.516  137.372  205.856      2227.00
 175.835  168.689  156.441      2208.00
 221.979   21.158  261.087      2192.00
  18.531  139.498  220.887      2187.00
 160.057   41.559  306.914      2112.00
 182.050  103.127  164.794      2109.00
  36.144   40.073  225.255      2051.00
  46.673   26.729   58.487      2034.00
 161.211  159.209  131.422      1993.00
 192.023  129.929   21.118      1989.00
  36.247  141.920  228.920      1973.00
 194.875  152.660  194.164      1950.00
 184.715  141.132  184.047      1948.00
 131.954  156.856   96.147      1908.00
 190.247   32.268   94.885      1888.00
 177.511  141.440  172.296      1885.00
 174.174  139.878  117.040      1855.00
 206.456   21.574  277.786      1853.00
 186.520   42.759   53.503      1838.00
   0.286   25.300  158.015      1828.00
 341.193  127.809  175.738      1826.46
 177.132   48.442  102.684      1818.00
  13.571  121.870  148.577      1809.00
 350.260  125.409  181.485      1795.00
 156.638   29.879  298.307      1750.00
 326.030  151.661  353.050      1716.00
 178.693   50.167   18.109      1708.00
 170.130   45.178  104.854      1705.00
   3.436   43.873  137.507      1701.00
 188.219  147.899  192.309      1699.87
 176.353  144.464  185.396      1692.00
 152.621  154.521  151.815      1685.00
 201.114   38.554  289.774      1665.00
 214.460   22.951   76.866      1661.00
   5.199   37.410  194.958      1656.00
 182.808  127.174   25.688      1650.00
 231.736  159.571  236.796      1649.00
 358.794   97.922  175.106      1640.00
  18.342   23.128  209.841      1639.42
  54.335  141.169   32.386      1635.00
   7.363   37.442  123.555      1629.00
  76.366  128.046   17.946      1614.50
 162.814   47.202   73.321      1609.00
  13.827   51.269  135.108      1600.00
 167.157  159.666  158.740      1586.00
 206.544  123.915   71.535      1581.00
 320.418  140.563  118.358      1581.00
 339.440   83.916  138.072      1564.00
  15.881   31.751  160.824      1563.00
 165.760   86.649  162.357      1544.75
 309.080   15.308  296.624      1533.00
 218.331  139.881   60.499      1518.00
  34.963   21.621  136.279      1500.00
 149.345  134.815  141.740      1495.00
 175.131   19.414  317.015      1478.00
 349.036   35.761  148.120      1476.00
 315.164  145.354  335.205      1473.00
 332.552  137.273  326.698      1469.00
 196.587  136.823  149.105      1456.00
  30.954   33.019   46.134      1447.00
 331.930   48.977   60.741      1446.00
  19.130  140.970  207.968      1437.00
 164.488  151.563  176.863      1420.00
  26.719  159.832  227.417      1406.00
  24.788  158.107   23.100      1399.00
 177.854  135.937  154.958      1397.00
 151.462   37.818  310.080      1383.00
 167.728  152.260  141.489      1368.00
 351.697   99.747  190.960      1365.00
 170.343   30.453  307.400      1364.00
 183.490   41.040   95.901      1346.00
 207.922   25.962   94.256      1345.00
 191.429   28.990  301.413      1344.50
  41.830  144.738   28.683      1334.25
  20.439   47.611  214.769      1334.00
 351.121   93.896  169.710      1327.00
 183.233  141.288  155.995      1321.00
 188.295   85.575  269.132      1310.00
  18.056   31.470  256.897      1309.00
 339.491   68.846  152.671      1308.00
   7.348   38.284  157.416      1302.00
 334.587  150.700  336.188      1295.00
 357.145   84.469  139.648      1288.00
 354.752  147.507  177.888      1285.00
   2.620   43.540  171.767      1284.00
 209.041   41.605  280.539      1280.00
 176.444  147.395  166.935      1274.00
 328.794  155.621  141.524      1273.00
 198.250  146.599   45.559      1269.00
 175.105  111.372  307.556      1267.00
 184.340   37.954  298.356      1265.00
 353.228   85.855   17.461      1259.00
 196.953  141.740  193.108      1250.00
  77.550   31.308    3.260      1248.00
 199.889   27.175   76.125      1246.00
 180.482  157.805  184.522      1245.58
   2.256  122.900  173.198      1242.00
 206.524  148.962  204.598      1237.00
 151.156   24.985   83.722      1224.00
 352.553   45.098  195.137      1217.00
   6.903  148.450  344.127      1209.00
  40.837   23.746   42.336      1194.00
 164.525  153.899  123.019      1193.00
 136.967  162.198  123.952      1192.00
 166.851  153.750  171.628      1189.00
  23.828  138.014  197.851      1185.46
 208.718  142.901  212.336      1183.00
 355.705   26.894  249.987      1182.00
 177.485   34.534  122.910      1178.00
   3.681  126.735  201.075      1175.00
   5.961  146.127  193.981      1175.00
 162.306  105.966  205.786      1174.00
 191.988  147.256  194.935      1173.00
 274.729  156.470  266.716      1167.00
 186.356  133.992    9.961      1164.00
 352.065   39.249  171.714      1162.00
 192.365   18.625  101.129      1155.00
 350.270   78.172  162.632      1152.00
   4.371  126.039  171.058      1147.00
 228.617  136.653  213.509      1141.50
 156.287  136.740  267.226      1140.00
  51.475   45.473   19.398      1139.00
 167.572   77.882  178.170      1135.75
  16.324  128.249  178.073      1135.00
  11.921   46.364  174.044      1134.00
   4.794   99.767   37.262      1125.00
 353.520  161.678  196.794      1114.00
 213.050  149.472  195.567      1113.37
  61.093   40.905  181.765      1112.00
 200.884  128.854  137.569      1109.00
 147.610  157.354  146.136      1103.00
 340.157  157.432  126.288      1099.00
 200.077   34.486   52.188      1091.00
 134.302  151.238  128.134      1086.00
 359.515   84.448  188.600      1081.00
 150.426   35.946  152.413      1081.00
 184.110   88.122  256.107      1078.38
 341.490  170.471  328.688      1076.00
 192.988  142.415  201.695      1066.00
 101.930  153.110   97.981      1063.00
  15.667  146.775  219.812      1059.00
 356.093   76.490  102.030      1051.00
  24.252   41.005  149.803      1043.00
 341.874  130.301  158.583      1043.00
 327.536  152.930    3.050      1040.00
 337.570   53.962  187.633      1036.00
 154.582  147.744  117.580      1031.00
 315.423  149.778  320.195      1022.00
  28.625   39.807  147.889      1020.25
 196.615  124.242   77.894      1019.00
 191.577  138.511  186.860      1017.00
 346.436   84.713  156.585      1017.00
 191.951   33.248  290.909      1009.00
 188.633   93.849  260.195      1009.00
 256.562   26.162  231.784      1004.00
 358.277   81.294  160.782       999.00
  65.831   30.025   75.818       999.00
 218.523   47.482   94.812       997.83
 209.359   49.579  279.628       994.00
 153.573  102.407  256.527       993.00
 184.292   63.133  127.354       989.00
 182.327   37.167   76.161       985.00
 163.369  157.065  166.102       984.00
 177.749  127.717  147.123       979.00
  95.303   10.218  145.205       978.63
  22.838  124.429  209.700       978.00
  16.175   94.677  186.794       978.00
 184.373  105.623  203.270       977.00
 172.219   27.709   87.385       976.00
 153.866   49.243  134.169       973.54
 171.811   50.364  129.696       968.00
 293.366  142.694  298.044       961.00
 357.032   87.181  155.082       960.00
 344.325   22.662  253.113       959.00
 331.945   39.801   71.662       959.00
 337.346   37.411  205.772       956.00
 359.245  130.039  190.040       954.00
   9.316   74.170  211.496       954.00
 167.749  146.886  158.902       953.00
 153.712   29.809   91.038       950.25
 214.922   14.545  235.624       948.00
 353.181   78.462  195.407       948.00
 338.978   61.671   44.486       945.00
 344.766  140.068  344.507       943.00
   0.410  130.660   41.172       942.00
 171.362   34.486  133.309       941.00
 176.526   64.483  139.641       934.00
   5.866  136.921  182.296       933.00
 196.034  142.070  191.809       932.00
 174.945  119.155  156.411       931.00
 359.059   88.772  160.018       929.00
 165.752  140.004  174.540       925.00
 356.672   37.679  175.587       925.00
 194.807   40.739   92.049       925.00
 342.109   86.397  136.920       923.58
 333.223  133.124  164.671       921.00
  39.168  160.235  183.016       921.00
 169.347  128.198  277.350       919.00
 184.620   12.649  273.435       919.00
  10.162   44.698  166.709       918.00
  18.761  143.630   27.088       917.00
  16.089  150.503  358.476       914.00
 163.674  130.176  152.698       911.00
 122.309  158.237   90.985       909.00
 313.262  140.406  332.387       907.00
  24.134  118.536  206.575       904.00
 171.751  137.613   13.211       901.00
 341.367   43.061   67.939       901.00
 359.218   79.416  149.644       899.00
 346.141  147.965  209.581       897.00
 166.598  159.362  158.254       895.00
 191.642   32.213   92.905       894.00
 336.164  151.935  155.610       892.00
 355.221  160.909  190.280       887.63
 188.029   90.059   35.577       887.00
 177.759   43.000  111.057       884.00
 268.575  150.779   68.345       875.00
  13.997   44.761  157.263       875.00
 350.989   49.579  305.387       874.00
 183.816   42.608   99.383       871.00
 243.796   36.874   51.530       870.00
  42.309  150.860  251.775       870.00
 160.789  141.319  132.586       867.00
 206.518  133.498   47.653       862.00
 357.458   49.519  135.003       860.00
  52.663  153.322  229.146       860.00
  54.401   21.254   17.322       859.00
 155.555  164.334  152.986       858.00
 353.718   84.058  143.590       852.00
 199.182   33.259  288.283       847.00
 139.841  135.822  138.278       846.75
 181.284   19.432  101.106       846.00
 207.955  150.232   46.395       842.46
 119.278   29.210  335.757       838.00
  26.925  155.123  205.414       834.00
 349.995   41.636  173.624       832.00
 176.067  145.428  174.954       830.96
 192.212  151.051  320.728       830.00
   0.193   30.635  262.592       829.00
 194.867   14.753   43.536       829.00
 147.394  143.017  323.052       828.00
 334.732  134.672  339.774       827.54
 358.016   57.143   43.930       827.00
 250.962  165.078  238.382       826.00
 354.032  154.362  331.783       824.00
 180.989   40.749   37.398       824.00
 220.974   48.492   48.442       821.00
  38.392  149.050  212.917       819.25
 177.217   93.443  277.361       810.00
 185.147   42.278   89.383       809.00
 173.521  150.088  185.574       808.00
  17.508   31.043  114.074       801.62
 158.903   98.186   47.329       800.50
 161.008  167.978  156.419       798.00
 255.956  159.200  164.241       797.00
 191.313   26.807  295.997       793.13
 118.644  171.602   82.658       792.00
   5.164   96.178  162.016       790.00
 348.409   69.349  160.481       790.00
  16.148  126.138  173.241       788.00
   8.325  141.723  155.570       786.00
 167.214  143.955  151.837       782.00
 157.814  152.926  139.235       773.00
 186.732   17.449  107.163       771.17
 183.385  138.487  184.531       771.00
 197.029   68.126  105.346       769.00
   3.781  165.430  350.093       765.00
   8.529   73.087  183.615       765.00
 194.750  149.512   32.611       764.00
  58.863   39.372  167.452       764.00
 359.307   84.565  204.695       764.00
 182.724   86.136   98.400       764.00
 157.417  105.502  183.193       764.00
  85.014   15.762  185.260       763.00
  11.179  152.278  154.316       760.00
 348.463  139.761  163.130       759.00
 166.418   54.151  145.796       758.00
 183.356   40.037   92.144       756.25
 162.867   53.265  137.848       756.00
 186.204   95.671  208.830       755.00
 180.210   86.328  262.526       754.00
 191.590  146.154  197.183       748.00
  27.989   23.866  235.438       747.00
 157.657  149.040  141.262       746.00
 297.093   67.250   15.598       743.00
   0.136  160.387  188.686       742.00
 179.548  112.383   49.748       739.00
 207.610   32.900  286.182       739.00
 162.709   40.012  135.428       736.00
 315.795   44.826  145.776       729.00
 165.544  124.172  317.880       728.00
 166.733  126.844  164.930       726.46
 199.014  149.660  190.121       726.00
 354.741  138.919  167.842       725.00
   2.484  147.149  174.387       724.00
 357.043  151.291  193.240       720.17
 190.014   13.435   77.412       720.00
 202.827   10.804  263.900       720.00
 347.829   47.909  177.862       720.00
  44.690  145.559   22.119       719.00
 175.398   38.679   90.736       719.00
 176.331   89.323  224.653       714.00
 131.687   24.893  330.097       713.00
  21.889   40.459  102.868       712.00
 202.295  137.825   91.394       712.00
   2.386  140.172  167.062       711.00
  22.174  130.572  169.638       710.00
  18.108  135.248  180.599       707.00
 226.471   59.452  278.317       705.00
 343.724   68.733  171.375       704.00
 342.582   74.466  150.033       704.00
 243.200   27.064   43.772       701.00
  11.100   60.433  170.118       699.00
 169.260  117.835  160.922       698.00
 189.063   89.587   36.817       697.00
 120.772    7.792    5.068       696.00
 184.135   38.066   63.695       692.00
  27.340   27.574  246.710       690.00
 160.480  144.785  126.329       689.00
 188.883   56.086  101.467       689.00
  16.527  138.438  185.650       688.00
 147.793  157.770  161.402       687.00
 350.260   94.405  167.880       687.00
 354.115   64.216  169.804       686.00
 170.374  129.907  123.583       683.00
 201.054   38.140   85.389       682.00
 200.672   20.182   69.065       681.75
 196.014   36.276   87.222       681.46
 172.569  120.759  173.322       681.00
 151.622   93.009  213.093       680.00
 176.362  117.738   18.407       679.00
 159.859  128.013  286.073       677.00
 160.500   67.586  149.159       677.00
 153.976  155.545  122.473       674.00
 194.899  144.055   87.172       669.00
 357.958  115.565  157.892       668.00
 173.362   46.101  131.553       667.00
  17.705   35.174  206.366       667.00
 357.067   88.558  195.153       665.00
 314.732   35.058  106.483       665.00
  19.725  100.351  347.620       665.00
 178.011   90.260  145.205       664.00
 330.815   20.200  192.222       664.00
  27.941   21.293   89.411       663.00
  20.941   39.709  160.247       660.00
 348.739  148.031  160.977       653.00
 154.818   14.802  323.869       651.00
 182.318   66.327  278.813       650.00
 120.843  150.755  291.550       648.00
 149.125   44.226  316.252       648.00
 172.296  143.335  118.963       647.00
  97.845  162.039   96.238       645.00
 353.666   90.569  164.172       643.00
 159.145   99.599  185.281       642.50
  25.490  152.762  216.746       642.00
 179.157   52.711  131.446       639.00
 151.105   37.048  111.470       638.00
  10.791   49.202   81.367       638.00
 178.019  109.072   29.594       637.00
 351.726   46.910  154.039       632.75
 186.359   67.805   98.220       632.00
 353.453   89.026  199.118       631.00
 179.020   30.978  101.966       629.00
 344.895   80.083  168.610       628.00
 358.627  128.046  168.575       626.54
   5.750   45.206  182.978       625.00
 347.806   30.738  172.481       625.00
 174.471  128.052  333.784       625.00
 124.145  140.432  101.250       624.00
 128.215  130.726   59.453       624.00
 207.864  152.470  223.449       623.00
  11.917  144.732  207.372       622.00
 175.701   41.694   85.480       622.00
 188.825  131.628   15.560       620.25
 169.558   30.552  107.384       620.00
  12.712   81.894  178.176       619.00
 182.280  135.478   14.640       618.00
 192.872   81.892  263.788       618.00
 121.545  168.533  113.592       616.00
 181.796  155.180  196.221       613.00
 190.754   62.843  275.746       611.00
  12.830   76.196  201.707       610.00
 156.107  149.848  144.782       610.00
  21.640  145.115   21.526       610.00
 350.462   45.200  198.530       609.00
 180.476   91.388  173.085       608.00
 359.273  120.761   10.452       607.00
   4.963   84.970  177.075       607.00
   5.410  119.427   48.603       604.00
 187.285   84.604   23.924       603.75
   1.466   89.256  199.626       601.00
 356.732   98.636  179.679       600.00
 241.154  145.115   46.949       600.00
   8.767  109.556  177.985       600.00
 172.956   39.690  132.439       597.00
 201.956  155.138  118.815       592.00
 355.273  146.428  168.943       592.00
 304.405   24.815  247.341       590.00
 194.055  136.555  196.882       589.00
  20.171   33.751   76.169       588.00
  77.813  146.351    1.334       588.00
 354.564   95.040  142.577       587.00
 152.938  149.683  116.689       585.00
  13.034   97.532  201.187       583.00
 357.725   97.429  161.440       580.00
   1.947   78.937  156.939       579.00
   7.047  131.967  334.779       578.00
  86.252  147.705   26.889       578.00
 202.363   20.601   73.124       578.00
   6.170   69.177  172.322       575.00
 131.752  145.216  313.535       573.00
 354.400   81.709  153.412       573.00
 350.178  141.495  340.381       572.00
  34.351  159.275   47.566       572.00
 262.629  152.460  246.686       571.37
 155.075  136.748  150.653       571.00
 148.744   34.585  305.907       569.46
 287.705  166.737  112.097       568.00
 102.368   30.049  353.414       568.00
 196.363   36.758  101.839       566.00
  11.088  113.652  201.329       566.00
 174.687   32.767  111.166       566.00
   0.504   63.119  161.082       566.00
  11.145  103.335  196.758       565.00
 204.101  123.776   24.893       565.00
 187.647  133.239   27.567       564.00
 352.555   67.154  159.690       564.00
 169.711   67.736  294.744       563.00
 352.825   49.572  207.973       562.00
  16.370  145.714  195.767       561.54
 358.194   77.296    9.418       561.00
 341.779  119.343  168.595       561.00
 352.521   39.940  182.310       560.00
 163.155  146.737  140.529       560.00
 177.441  153.671  133.540       558.00
 161.589   66.548  102.706       557.00
 188.821   82.406  129.323       553.00
 171.957  140.754  165.257       553.00
 189.540  147.276   31.821       552.00
 107.960  152.118   64.621       552.00
 177.154   36.044  298.108       550.00
 173.188  123.982  153.411       550.00
 199.224  126.500   34.088       548.50
 352.097  140.936  178.395       545.96
 345.731  142.052  339.672       545.00
 194.322  139.683   34.187       544.00
 171.797  143.380    5.687       542.79
 358.385  106.009  195.220       541.00
 185.114  116.615  193.392       541.00
 200.690   52.539  102.478       540.00
 215.063   37.085   64.147       540.00
 166.330   44.927  106.457       540.00
 359.784   67.730  190.144       539.00
 195.610   64.366  116.890       539.00
 187.471  139.991   20.160       537.00
  72.224  153.112   48.852       536.00
 352.878  104.677  174.692       536.00
 158.216   31.052  131.617       536.00
 185.788   91.669   17.461       535.00
 184.471   56.433   59.879       534.00
 179.046   80.476   43.777       534.00
 343.228   43.071  193.217       532.00
 141.784  141.271   88.280       531.00
  13.363  125.304  199.751       531.00
 336.536  135.942    1.553       530.00
 347.342   75.670  154.262       528.00
 336.851  132.543  152.466       528.00
 230.278  161.625  223.161       528.00
  14.639  123.950  206.182       527.75
 185.288   23.065  288.476       527.00
 196.299  126.554   16.129       527.00
 177.270  148.055  284.266       527.00
 243.496   32.796   36.848       526.00
 358.885  141.053   15.171       526.00
 357.328  143.331  199.954       526.00
 353.387  112.424  190.285       523.00
 178.330   85.915  339.071       523.00
 190.578  159.068  181.221       523.00
 349.849   79.153   22.641       523.00
 183.442  116.767  152.860       522.00
 245.713   30.570  250.003       522.00
 181.755  148.613  169.149       521.00
  43.253   28.050  215.730       519.00
  14.003   45.779  201.410       519.00
 345.803   64.143  355.958       517.00
 180.360  111.622   37.854       516.00
 272.882   29.983   13.004       516.00
 169.733   11.316  107.282       516.00
 191.178  143.728  180.670       515.00
 172.117   54.404   65.367       515.00
  50.391  153.413   33.655       514.00
 356.917   31.220  157.509       514.00
 181.339  139.139  156.456       513.00
 325.670  149.641  113.237       512.00
  98.291  147.695   54.005       512.00
  11.297   80.495  204.855       512.00
 172.365   32.602   78.363       510.00
  29.540   32.031  235.612       510.00
  20.737  134.592  184.670       509.00
   6.879  106.519  186.528       509.00
 194.449   36.572  287.662       508.42
 178.503   53.094  112.288       508.00
 195.190   31.562   76.581       508.00
 155.116   38.081  110.107       507.00
  14.723  134.866  160.969       507.00
   5.638   90.381   35.775       507.00
  31.862   31.769  167.597       506.00
  56.438   19.225   45.999       506.00
  18.963  157.476    0.257       505.00
 183.584  131.201  183.784       504.00
 176.560  152.248  132.865       502.00
 178.484   86.202  104.951       502.00
 357.311  129.893  191.709       501.00
 337.840  146.792  358.120       501.00
 352.051  121.720   19.246       500.00
 195.457   31.618  284.337       500.00
   5.604   89.384   30.035       499.58
  19.483  137.804  200.757       498.00
   2.084  144.171  194.257       498.00
 331.703   52.855  215.836       497.00
 185.975   74.267  259.518       496.00
 333.216   25.847  277.225       495.00
 355.519  109.850   16.082       495.00
 328.904   26.653  196.732       495.00
 343.987  157.597  159.531       495.00
 328.800  144.155  100.458       494.00
 344.643   83.037  148.849       494.00
 357.429   51.975  292.708       494.00
 356.692  139.085   21.844       494.00
 183.501   45.784   90.872       492.00
 350.592  120.847    5.349       491.00
   1.176   83.265  173.437       489.00
 198.077  144.437  176.012       489.00
 332.304  154.667  137.384       488.00
 359.602   51.543  188.237       488.00
 289.306   37.279  325.557       487.25
 343.942   43.945  209.618       487.00
  44.948  148.922  234.040       487.00
  31.326   31.776  228.203       487.00
 139.756   42.872  325.545       486.00
 175.773   80.048  127.138       486.00
  16.523  138.389  194.822       484.00
  12.160   83.462  146.819       483.62
 179.800   94.647  231.117       483.00
 358.881   61.223  181.924       483.00
 196.744   33.375  108.917       483.00
  58.369   32.303  207.169       483.00
 160.952  150.515  164.308       482.00
 163.527  155.905  145.670       482.00
 173.606   68.130   49.371       481.00
   1.174  145.065  183.359       481.00
   5.055   86.083   92.564       480.00
 192.811  145.559  197.500       479.00
 334.810  140.575    5.424       479.00
 356.394   64.147  166.947       477.00
   5.621   39.463  165.164       475.00
 348.543   88.929   98.851       475.00
  15.008   32.666  188.248       473.00
   5.335  144.787  187.113       473.00
 354.699  137.515  191.589       473.00
 303.163  155.299  307.205       473.00
 351.440  100.119   87.852       472.00
 189.923   88.474   52.516       472.00
  10.781   47.491  185.847       472.00
   4.277   88.659  193.296       472.00
 150.080  159.141  150.891       472.00
 179.258   27.134   92.632       471.00
 359.265  138.355  175.597       470.00
 163.498  121.148   90.370       469.00
 219.331   44.024   81.050       468.00
 178.993   48.418   87.095       468.00
 339.682  147.166  164.629       467.00
   7.730   65.704  192.017       466.00
 161.392   90.195  231.450       466.00
   3.438  109.933  158.780       465.00
 203.557  138.401  204.034       465.00
 189.438  158.441  201.226       464.00
 153.903  166.786  143.427       464.00
  17.862   53.971  356.641       461.00
 184.847   95.335   43.172       461.00
 188.148  134.604  179.249       460.00
   4.626  150.328  185.981       460.00
 324.636  143.312  317.424       459.00
 176.762  136.277  173.033       458.00
  21.649  110.734  190.835       457.00
 182.383   80.938  278.649       457.00
   3.392   41.844  175.376       457.00
 181.208   27.374   84.623       457.00
   8.476   76.925  186.181       456.00
   2.643   84.011  174.030       456.00
 354.937   94.676  145.184       456.00
 351.145  139.094  343.962       454.42
 193.543   81.042  140.866       454.00
   4.825   57.686  156.013       454.00
 175.001   85.911   47.109       454.00
 177.965  119.951  174.655       453.00
  37.581   50.565   31.516       453.00
 188.859  158.248  201.032       452.00
 217.130   15.458  275.583       451.50
 176.974  147.238  190.066       451.00
  35.453   41.218  105.117       451.00
 185.211  151.519  181.910       451.00
 169.537   20.466  288.201       449.00
 189.672  140.139  181.137       449.00
 186.772  134.008  351.241       449.00
  28.126   33.750   82.562       448.00
 165.448   48.030   42.990       446.50
  62.927  142.815   21.696       445.00
  64.277  150.438  246.732       445.00
 335.957   41.304  194.535       444.00
   6.341   30.331  159.141       444.00
  25.978   49.475  187.326       443.00
  32.908  137.440   14.235       442.87
 145.719  148.088   89.832       442.00
   8.388   56.365  199.143       442.00
 178.515   76.586  278.085       440.00
 169.591   37.570  101.177       439.00
 353.192  120.831    7.488       438.00
 182.691  149.002  162.892       438.00
   4.393   91.325  177.310       438.00
 145.564   31.393  325.204       437.25
 351.744  140.650  177.564       437.00
 350.390   37.208  222.432       437.00
 345.697  113.411  174.534       436.00
   8.392   78.224  186.079       436.00
 175.035   19.917   92.605       435.00
 173.949  156.794  136.504       435.00
 358.730   56.773  163.110       435.00
 355.015  129.042  176.099       434.00
 352.276   88.831   82.839       434.00
   7.037   54.574  194.455       433.00
 196.393   65.887  108.933       432.00
  29.181   53.150  201.166       432.00
 337.276   68.845  235.300       432.00
 186.439  123.018  189.260       432.00
  33.935  127.657  186.987       432.00
 185.992  131.125  166.968       431.00
 170.608   84.842  239.692       431.00
 263.731  148.283  266.210       431.00
 203.334  144.643  204.713       431.00
 311.761   33.584  147.148       430.50
 166.109   33.604  150.054       430.00
  12.544   26.721  194.931       429.75
 174.590  138.416  183.916       429.00
 190.622   39.008   84.376       428.00
 157.569    4.975  329.941       427.38
 346.847  146.141  184.719       427.00
 193.666  148.488  190.406       427.00
 352.288   98.811  107.723       426.00
 205.791   34.834   91.985       426.00
 344.457   34.673  209.774       425.00
   4.840   27.895  212.390       425.00
  29.954  157.236  353.118       424.00
 333.992   31.499  187.197       424.00
  16.094  131.408  180.004       422.00
   2.227   38.749  210.596       421.50
 176.342   59.457  121.773       420.00
  49.935   32.899   90.818       419.00
 350.654   37.245  210.515       419.00
   1.856  128.862  359.970       419.00
 247.678  157.342  238.146       419.00
  51.619  149.198   40.018       418.00
   1.386  114.836  177.318       418.00
 182.131   56.702   85.312       418.00
 171.113   58.771  280.178       418.00
  27.827  129.683   19.566       418.00
   4.120   91.767  200.488       417.00
 281.316   33.901  345.391       417.00
 230.700   35.276   56.461       416.00
 177.720   91.977   64.274       415.00
 185.690   36.452   97.652       414.00
 145.776   43.111  168.745       413.00
 358.014   83.076  148.574       413.00
  36.705  130.990  276.716       412.00
 158.524  140.379  131.325       412.00
   6.295   83.652  172.631       411.00
  25.979  133.165   17.796       411.00
 167.842  137.162  149.184       410.00
 164.728   34.172  107.807       407.00
 164.856   99.635  259.098       407.00
 339.988  130.815  170.148       406.00
 351.885  109.889  164.216       405.00
 176.257  146.684  155.884       404.00
  55.192  146.138   35.409       403.00
 174.329   15.363  292.964       403.00
 305.787   30.069  286.184       403.00
   7.354   84.842  174.767       401.00
 186.235   81.018  278.634       401.00
   6.250  142.550   12.079       401.00
  39.492   47.335   40.728       401.00
   5.751   85.079  193.354       401.00
  14.212   76.490  224.901       397.75
 140.713  140.851  137.062       397.00
  12.547  122.760  172.583       397.00
 352.938   48.863  225.557       396.00
 343.351  102.820  145.123       396.00
 170.454   60.349  294.621       396.00
 181.624  155.008  164.398       395.00
 183.544  160.034  165.264       395.00
 135.114   32.837  317.469       395.00
 159.546  120.927  136.219       395.00
 343.316   94.343  143.107       394.00
 296.554   28.658  310.365       393.00
  30.710  134.030  219.368       392.00
 201.568   68.869  105.772       392.00
 286.287  139.012  161.148       391.00
 168.015  140.903  153.781       391.00
 347.661  141.294  186.405       391.00
  32.312  176.807   11.487       389.50
 158.864  153.826  100.743       389.00
 184.299   71.825   71.987       388.00
 354.011  107.129  191.213       388.00
   3.591   90.875  190.150       388.00
 166.142   40.387   73.426       388.00
  19.327   95.229  216.389       388.00
 352.405  150.226    2.277       387.00
 120.854  138.366  277.620       387.00
   7.923   82.776   95.999       385.00
   8.362  136.383  196.673       385.00
 162.969   70.416  279.240       384.00
 194.221  128.960  331.408       384.00
 198.347  140.937  319.351       384.00
 192.832   79.070  104.738       384.00
 174.392  154.214   24.315       383.00
 166.859   38.215  118.627       382.50
 112.736   33.854  354.271       381.00
 146.148   30.273  145.423       381.00
 151.330  142.291  116.492       381.00
 194.015   58.806  259.255       381.00
   2.677   61.654  187.877       381.00
   8.713  105.102   24.935       381.00
 186.729   31.269   75.857       380.00
 359.098   77.326   16.720       380.00
 356.986  101.413  151.913       380.00
 333.229  147.830  317.594       379.25
 188.455  156.565  198.354       379.00
 210.509   20.917   44.459       379.00
 183.832  150.233  190.616       379.00
 160.771  126.698  121.762       378.00
 176.434   43.966   18.601       378.00
 172.462   80.548  346.486       378.00
 178.675  102.055  264.614       378.00
  48.236  143.470   22.609       377.00
 337.805   56.524  190.091       377.00
 201.824  139.258  204.378       376.00
  96.684  142.306   47.872       376.00
 201.808   39.671  101.760       376.00
  77.989  166.193   63.437       376.00
 357.867  138.566  342.223       375.00
 353.760   53.048  158.276       375.00
 299.112   82.565   22.434       375.00
 175.504   71.441   44.813       375.00
 200.906   18.331   84.084       374.00
 334.252   44.779   56.119       373.50
 216.468   36.261   72.485       373.00
 273.035  149.512  266.690       372.00
 349.425  140.161   26.188       371.00
 176.805   61.197  284.823       370.00
 341.643  121.339  169.347       369.00
 124.470  153.887   73.721       368.00
 160.023  132.061    1.172       368.00
 186.942  135.550   28.234       367.00
 133.308   10.225  343.718       367.00
  35.075   41.203   99.896       367.00
 212.420   45.181   70.407       366.00
 160.992  138.964  163.958       366.00
 178.073   79.219   46.761       366.00
 165.174   47.946  115.343       365.00
 356.977   88.485  176.861       365.00
 179.174   83.939  139.322       365.00
  47.025   36.226   37.789       364.50
 199.543   64.872  284.422       364.25
   0.531   47.322  218.098       364.00
 157.113  111.378  185.527       364.00
 351.380  143.357  330.208       364.00
 355.564  140.554  197.430       363.00
   9.519  137.925  178.885       363.00
  17.707  143.984  201.785       363.00
 142.781  162.435  121.119       363.00
 338.316  135.552  354.010       362.00
 150.522   70.703   52.361       362.00
 172.122   89.016  170.042       362.00
  52.146  150.424  206.036       360.00
 195.480   53.696  119.718       360.00
 217.175  159.378  227.622       359.00
 169.949   37.292  111.441       359.00
  33.575  166.911  228.499       359.00
 357.128  120.523  165.769       359.00
 335.192  143.527  159.648       359.00
 301.546  172.962  284.983       358.75
 174.707  139.416   21.167       358.00
 352.411  141.894  162.669       358.00
 335.757  169.806  174.693       358.00
 329.512  143.144  350.232       358.00
 173.013  129.895  152.713       358.00
 183.772   73.324  268.095       358.00
 135.276  154.316  127.147       357.00
 324.930   60.881  320.384       356.00
 180.506   94.225  226.364       354.00
 326.062   43.868  265.209       353.00
   1.624   33.194  128.381       353.00
  88.134   80.084   88.542       353.00
 342.589   91.600  149.021       353.00
 335.129  140.685  305.893       352.00
 332.071   44.246  201.640       352.00
 148.913  157.642  146.784       351.00
 344.710   40.101  252.781       351.00
 232.152  164.009  211.681       351.00
  38.618  134.520   22.449       351.00
  10.820   32.439  134.223       351.00
 161.868   58.062  295.089       351.00
 165.861   63.255  123.165       350.00
 178.777  107.685   33.071       350.00
 191.430  150.345  166.755       350.00
  41.210   20.533   66.306       350.00
 342.521  164.167  333.169       350.00
 172.763   70.468   73.342       350.00
 344.194  139.761  143.718       349.00
 359.736  132.242    8.820       349.00
  48.638   16.385   55.898       349.00
 319.208  137.398  328.333       348.00
   5.906   25.828  259.182       348.00
 356.768  124.686  172.479       347.00
 348.261   27.423  181.161       347.00
 343.938  134.052  150.162       346.50
   4.208   89.921  192.563       346.00
 180.338  117.073  159.362       346.00
 122.694  114.035  255.377       346.00
 145.910  159.724  141.256       346.00
 356.099   85.398  158.497       345.00
 340.630   86.024  128.303       345.00
 167.710   25.223   91.462       344.00
   8.243   87.274  173.557       344.00
 159.432   52.420  142.770       344.00
 120.922   42.420  322.355       344.00
 334.963  113.244  133.158       344.00
 197.742  158.331  182.101       343.00
 175.841   41.101  301.563       343.00
 163.577  127.162  161.013       343.00
  21.691   63.809  169.678       342.00
 334.646  140.244  159.262       341.00
 186.118   88.338  269.071       340.00
 187.775  133.519    9.847       340.00
  26.908   73.179  208.242       339.00
  26.401   21.075   83.908       339.00
  27.296  159.869    5.663       339.00
  20.996   49.875  107.805       338.00
 203.926  133.716  100.819       338.00
 322.082  147.576  200.932       337.00
 351.679   76.549  103.510       336.00
 351.232   36.391  176.032       335.00
 188.917   96.455  134.016       335.00
 215.473  112.382  107.916       335.00
   1.209  135.604  195.256       335.00
  99.741   12.188   16.338       335.00
 178.141   41.111   95.931       335.00
 357.401   31.343  212.067       334.00
 222.966   38.727  293.353       334.00
 353.428   44.682  177.082       334.00
 222.525  160.122  222.739       333.00
   7.770   64.619  189.485       332.50
 170.429  145.697   25.215       332.00
 135.201   43.614  167.767       332.00
 164.347  148.298  306.765       332.00
 336.611  160.215  345.334       332.00
 224.864   26.303   46.937       332.00
 346.743  113.596  173.746       331.25
 177.450  137.322  169.660       331.00
 183.291  140.468  165.195       331.00
 176.579   77.419  267.997       331.00
  17.883   93.317   45.116       330.00
 356.246  122.673   11.942       330.00
  93.468   98.228   65.242       329.00
 191.964  124.056   18.559       329.00
   5.436   94.228  194.969       329.00
 339.213  143.569  174.091       328.58
 353.099   80.119  142.016       328.25
 104.299  160.536   82.219       328.00
 275.847  174.350  261.074       328.00
 350.954  139.451  184.937       328.00
  29.428   32.998  206.817       328.00
 224.441  151.923  176.737       328.00
 189.400   42.080   97.726       327.00
 174.246   88.295  135.053       327.00
 348.293  158.099  331.707       327.00
 331.030   43.044  203.329       327.00
  23.468   40.656   67.403       326.00
 359.954   85.304  152.342       326.00
   4.830  100.308  136.379       326.00
 165.182  134.326  122.320       326.00
  16.650   48.893  101.628       326.00
 350.071   52.731  171.346       326.00
 149.633  151.065  114.873       325.00
 186.869  156.773  200.079       324.00
 353.397  145.273  356.673       324.00
 146.812    6.010  108.011       324.00
 183.562  138.442  162.104       323.00
 353.771   68.068   19.633       322.00
 340.230   71.835  189.442       321.50
  16.238   46.247   52.349       321.00
 336.145  158.284  145.708       321.00
   8.521   85.378  198.874       321.00
 351.979   37.081  262.581       321.00
   6.290   57.945  171.115       320.00
 168.576   29.052  122.550       320.00
  13.207  109.690  197.112       319.00
 344.879   33.042  162.275       319.00
 270.063  142.599  123.423       319.00
  61.908  169.497  274.447       319.00
 177.031  142.627  185.496       319.00
 170.373  137.579  135.970       319.00
 201.581   47.696   68.772       319.00
  41.382   22.634   67.852       318.00
 188.354   40.637   80.824       317.00
 176.340   77.613  284.303       317.00
  84.981  161.647   53.434       317.00
 173.608   37.842  114.308       316.00
 342.206   18.539  231.211       316.00
 351.199   87.339  183.057       316.00
 321.401  149.954  138.284       314.00
 180.492  148.588  161.486       314.00
 191.535   45.028  105.843       314.00
  11.330   80.457  206.277       313.54
 209.989   31.256  291.123       311.00
 205.195  128.403  144.632       311.00
 172.685   27.057   86.508       311.00
 355.089  116.972  179.491       310.00
 215.281   44.643   49.604       310.00
 281.787  154.749   91.768       310.00
 187.148  129.597  168.239       309.00
 275.095  148.392  292.516       309.00
   4.550   74.797  208.407       309.00
 334.967   26.514  262.946       308.00
 136.818  129.063  250.963       308.00
 168.596  133.894   18.349       308.00
 229.532  136.462  228.715       307.00
  14.015   46.244  195.585       306.00
 272.670  164.978  264.951       305.00
 326.621  143.709   13.537       304.25
 192.205   94.094   27.728       304.00
  10.241  168.111  348.630       304.00
 276.923   38.738  336.601       304.00
 166.810   60.572  296.816       303.00
 188.432   68.007  274.308       303.00
 166.771  118.527  175.513       303.00
 180.122   35.710  115.803       302.00
 192.714   67.059  272.218       301.00
 353.944   90.196  159.802       301.00
  36.839  170.487  279.229       300.00
 199.034  118.408  117.830       300.00
 178.740   65.231   34.859       300.00
 189.592   66.682   75.092       299.00
 344.332   53.650   40.979       299.00
 194.813   44.748  273.310       299.00
 193.913  137.084  193.057       299.00
   2.781   76.505  157.046       298.00
 349.343  147.872  336.982       298.00
 267.870   89.675   32.443       297.00
 278.639  147.522   86.216       296.00
 197.824   87.513  256.640       296.00
 194.738  138.175  196.045       296.00
 130.440   43.224  171.310       296.00
 188.280   66.649  258.683       295.42
   3.096  107.096   14.857       295.29
 180.309  102.184   65.393       295.25
 176.158   45.550  123.584       295.00
 222.868   34.095   39.130       294.00
 155.717   22.669  295.690       294.00
 342.806   37.968  209.191       294.00
 353.248   99.796  143.358       293.00
 162.712   56.238   65.349       293.00
 355.897   86.825  156.242       293.00
  10.631   46.473  337.781       293.00
   1.447   27.898  192.982       293.00
 342.802  147.402  149.673       293.00
   7.920   69.374  209.758       293.00
 181.012  146.335  162.916       292.00
 301.970   21.228  288.392       291.00
 267.334   78.198   33.298       291.00
 355.998   66.884  156.401       291.00
 183.965   71.920  132.525       290.50
 355.443   77.062  164.132       290.00
 191.965   40.998   84.665       290.00
 181.754   25.832   59.184       289.00
 351.746   76.345  148.692       289.00
 354.860  109.369  163.564       288.00
 123.892   85.573   95.482       286.88
 323.347   34.782  293.750       286.00
 193.719   45.735   72.535       286.00
 124.034  150.631  247.741       285.00
 157.722  128.461    2.360       285.00
  54.833  152.073   56.564       285.00
 147.609   46.637  119.140       285.00
 151.965   38.039  317.169       284.00
  95.416   38.723  346.897       284.00
   8.732   72.830  183.643       284.00
  10.173   56.403  158.160       284.00
 214.568  138.970   67.018       284.00
 167.580  152.074  141.665       284.00
 155.581   43.523  151.556       283.00
 268.409  100.538  103.760       283.00
 218.892  142.281   91.384       283.00
 195.916   80.431  127.424       283.00
 337.408   57.482  188.776       282.00
 193.081  124.414   48.564       281.75
  28.456  163.209    7.613       281.00
 163.007  136.885  130.396       281.00
 350.299   43.254  164.126       280.25
 170.363  141.581  172.490       280.04
 350.549  107.839  152.657       280.00
 180.097  138.504  165.381       280.00
   2.332   78.990  145.235       280.00
 113.421   70.863  137.267       280.00
 192.686  147.717   37.767       280.00
   6.680   57.556  193.329       279.00
 167.046   20.482  299.454       278.00
   4.047  137.858   13.289       278.00
 177.283    7.799  283.896       278.00
 215.044  151.364  229.615       278.00
 185.271   60.024  123.038       278.00
 149.075   66.901   52.728       278.00
 177.016  103.775  155.947       277.00
 187.742  145.023   25.280       277.00
 356.728   33.112  160.553       277.00
 270.833   95.210   48.765       277.00
  30.441   37.160  130.825       276.00
 188.568   48.931   80.962       275.00
 191.527  148.182  194.698       275.00
 183.893   29.505   86.621       275.00
 179.755   51.830   89.043       275.00
 343.388   46.271  212.202       274.00
 351.506  124.978  190.041       274.00
  49.340  150.995   31.793       274.00
 143.240  166.148  148.979       274.00
 174.172  112.145  170.294       274.00
 174.016   45.723   94.254       274.00
 165.799  120.023  159.675       273.00
 176.616   67.838  117.479       273.00
   3.103   70.169  178.673       273.00
 350.444  108.799  176.483       272.75
 345.524   73.397  156.411       272.00
 189.600   42.931   87.307       272.00
 104.937   36.165  331.907       272.00
 304.531  160.610  323.201       271.00
 231.802   21.752   22.022       271.00
   5.498   48.604  192.514       271.00
 183.906  102.595  181.772       271.00
  12.208  112.496  173.398       270.00
  82.897   84.834  331.872       270.00
 160.781  120.889  155.887       269.00
 174.975   36.990   98.166       269.00
 184.356  138.378   12.061       269.00
 356.395  101.335  155.961       269.00
 215.516  132.860   45.405       268.00
 158.165  138.413    5.672       267.00
 151.374  145.536  116.035       267.00
   1.251   46.916  200.235       267.00
 358.725   96.572  148.169       266.00
 338.401   40.145  303.124       266.00
 242.674  102.804  100.057       266.00
 346.157   39.164  252.351       265.00
 185.381  124.900   12.654       265.00
 186.783   57.883   77.107       264.00
 196.459   83.056   91.093       264.00
 179.856  157.629   86.081       264.00
 192.210   90.008  265.881       264.00
   4.822   64.587  173.038       264.00
  22.427   99.386  185.851       263.00
 184.779   80.680  273.193       263.00
 177.570   73.627   35.535       263.00
 217.486   34.986   79.384       262.00
 248.528   35.262   12.095       262.00
 189.420  145.536   53.964       262.00
 187.383   36.961  298.634       262.00
 182.911   77.419   29.815       262.00
 357.884  136.804  164.083       262.00
 199.459  139.513  119.165       262.00
 354.897   78.433  156.157       262.00
 172.825  157.093  188.619       262.00
 324.737  157.681  330.323       261.50
 182.984   78.505   17.662       261.00
 222.018  151.835   98.400       261.00
 346.006  103.246  151.707       261.00
 192.672  129.243   22.091       260.00
  15.324  142.113  190.751       260.00
 303.799   19.464  275.049       260.00
 157.272  145.314  154.824       260.00
   8.810   96.876  147.183       259.00
 338.359   37.959  220.945       259.00
 159.654  107.411   36.365       259.00
 359.193   86.195  171.879       259.00
 207.784  166.792  202.990       258.00
 164.845  137.024  147.196       258.00
 155.641  129.144  151.980       258.00
  75.894   83.888   19.326       258.00
 233.104   35.937  267.176       257.50
 183.055   54.159   98.152       257.00
 272.774   86.467  194.711       257.00
 204.944   33.251   81.936       257.00
 123.060  100.528  273.218       257.00
 339.535   45.664  208.338       256.62
 202.084   30.614   76.866       256.00
 358.803  114.831  161.938       256.00
  12.379   96.235   33.832       256.00
 188.664   60.026   95.020       256.00
 229.603  132.409   83.874       256.00
 107.864  164.064  108.681       256.00
  10.985   49.551  193.119       255.00
 324.539   27.959  246.414       255.00
  38.980   31.361  117.546       254.00
  30.101  149.143   68.714       254.00
  43.577  159.466   26.769       254.00
   1.164   66.910  160.825       254.00
 348.192  143.958  186.263       254.00
 166.999   42.819  136.674       254.00
 177.118   26.204  310.997       253.00
 348.810   88.048  157.594       253.00
 160.225   91.764   25.797       253.00
 150.877   22.657  311.264       253.00
 218.571  117.612  199.923       252.75
   6.114   84.899  200.074       252.00
 157.371  145.053  132.350       252.00
 137.850   80.953  219.482       251.00
 117.124    8.920  162.583       251.00
 174.198  151.462  126.753       251.00
  68.488   89.164  259.633       251.00
 174.141  100.558  102.712       251.00
 116.689  148.009  101.530       250.00
  30.085  123.778  203.967       250.00
 353.052  127.797  155.045       250.00
 180.795  157.482   24.585       250.00
 350.657   83.776  188.746       250.00
 185.430   56.674   80.671       250.00
   5.004   88.985  146.526       249.00
  41.617  133.794   44.396       249.00
 172.661  143.954  152.381       249.00
 183.187   79.532   45.125       248.50
 185.706  154.608   37.276       248.00
   4.708   81.994  205.061       248.00
 169.318  139.556  157.250       248.00
 189.430  131.006   24.715       247.00
 191.172  148.190  322.281       247.00
   1.509   53.536  197.430       247.00
 197.266  149.430  210.264       247.00
 357.714   66.209  187.044       246.00
 113.265   81.690  332.200       246.00
 107.344  148.276  300.369       246.00
   8.682   42.267  205.814       245.00
  36.964  143.726   28.281       245.00
 114.829   87.840  333.310       245.00
 191.075  138.536  197.362       245.00
 348.177   94.881  190.738       244.00
 170.327  113.495  168.394       244.00
  15.568  148.584    1.892       244.00
  17.602   16.517   67.581       244.00
 349.677   54.600  190.626       244.00
 351.201  104.704   16.243       244.00
 288.728   69.329  317.668       244.00
 177.411   85.380   50.618       243.12
 354.315  108.686  159.378       243.00
 178.939   69.072  299.075       243.00
  49.610   33.932   64.824       243.00
 172.946   84.935   31.679       243.00
 354.571   84.915   20.366       243.00
  33.438   28.018  121.301       243.00
 349.011  125.530  163.733       243.00
 153.599  142.239  126.165       243.00
   2.924  126.997  200.800       243.00
 354.003   11.647  101.674       242.75
 153.868  162.923  155.270       242.00
 128.483   49.083  130.214       241.00
 173.105   41.209   51.773       241.00
 181.778  141.966  153.368       241.00
   2.237  154.638  340.989       241.00
 197.856  131.873   24.801       241.00
 342.679  138.258  339.557       240.00
 195.524   50.746   82.099       240.00
   5.490  155.842  350.798       240.00
 208.943   29.941   78.257       240.00
  80.606   20.281   15.270       239.00
 272.446   80.786   70.794       239.00
  21.894  101.522  203.059       239.00
 151.561   42.439  106.585       239.00
 179.450  136.701  161.731       239.00
 124.227   33.705  346.493       238.00
 296.624   24.448  292.272       237.00
  61.273  157.466   34.293       237.00
 208.283   12.438  290.030       237.00
   5.238   58.852  182.341       237.00
 225.894   37.276  262.193       237.00
  13.369   41.901  105.369       236.00
  33.647   45.528  162.939       236.00
 335.347  148.529  338.734       236.00
 183.454  132.912   21.114       236.00
 106.999   27.771    9.942       236.00
  21.978   41.903  229.712       236.00
 335.924  143.159   33.812       235.50
 326.321  157.011  338.497       235.00
 206.317  139.062   34.031       235.00
 157.496   26.865   94.342       234.00
 161.512   64.069  309.041       234.00
   6.134  103.479  165.765       234.00
 351.783  119.275  149.695       234.00
   8.630   65.614  197.381       233.00
  41.972  149.199   28.873       233.00
 173.789   52.916  131.089       233.00
   8.253  107.289  185.108       232.00
   9.218  128.582  198.085       232.00
 196.823  132.775  120.874       232.00
  15.182  126.885   32.445       231.00
 277.129  173.931  271.941       231.00
 185.602  116.111   55.553       231.00
   0.187   49.651  191.134       231.00
 338.795  159.962  174.636       231.00
 171.635   43.287   92.151       230.00
 115.729  111.891  270.479       230.00
 217.236   28.114  268.545       230.00
 173.717   16.593   87.053       229.00
 347.904  156.766  348.640       229.00
 182.378   81.223  260.180       229.00
 182.230  143.186  187.226       228.25
  11.551   99.816  109.750       228.00
 225.403   38.788   44.689       228.00
 199.694  157.906  204.809       228.00
 198.290  139.206  199.130       227.00
 198.092  129.056   29.764       227.00
 347.737  104.224  147.743       227.00
 346.408  139.505  162.614       227.00
 131.622   13.432  305.620       227.00
 190.877   56.611  112.378       226.75
  17.857  142.598   27.182       226.25
 181.207  145.025  169.363       226.00
 359.291   80.764  149.444       226.00
 342.455  101.195  147.681       226.00
 184.104  139.975  185.298       225.00
   1.408   46.064  185.208       225.00
 179.653  126.361   32.082       225.00
   6.119   29.003   47.415       225.00
 357.982  126.884   13.071       225.00
  20.220  128.858  206.493       224.00
  81.359   69.922  184.373       224.00
 153.026  129.663  157.409       224.00
 187.801   46.169   71.730       224.00
 182.520   67.395   73.359       224.00
  43.679  151.055   30.495       223.00
 211.985   30.768  324.500       223.00
 349.218  138.906  342.161       223.00
  29.225   23.607   89.962       223.00
 346.568   50.567  192.954       223.00
 229.115   35.444   58.708       222.00
 259.652   91.386   70.873       222.00
 164.346  142.606  154.118       222.00
 172.052  129.652  138.634       222.00
 167.390   55.392  297.882       221.75
 208.319   50.516  279.126       221.00
 321.572  149.812  316.518       221.00
 205.536   22.387  275.809       221.00
  95.999  105.482  294.642       221.00
 187.663  145.211   26.153       220.00
  23.165  117.617  187.233       220.00
 204.268   33.370   92.115       220.00
  66.017   25.469   86.673       220.00
 357.462   81.806  156.764       220.00
 198.133   41.298  103.397       219.00
 266.235   91.908  155.546       219.00
 193.240  135.104   19.155       219.00
 173.230   32.848  306.560       219.00
 347.752  100.199   18.399       219.00
 357.887   77.795   20.272       218.00
 179.231  136.665  174.758       218.00
 350.876  103.729  148.978       218.00
  98.548  140.466   87.555       217.00
 200.423   59.620   93.909       217.00
 353.669   62.741   17.230       217.00
  61.823   21.557   42.673       217.00
 196.577   51.086   59.942       217.00
 344.518   87.441  140.049       217.00
 183.416   49.597  121.047       217.00
   1.410   89.815  175.915       217.00
 104.615   75.898  329.790       217.00
 354.617   92.575   79.551       217.00
 172.008   36.852  114.512       217.00
 152.512  133.646  161.210       216.00
 346.466  116.154  159.860       215.00
 144.353  170.528  113.639       215.00
 182.360   68.323  269.893       215.00
  13.521   81.235  183.750       215.00
 294.689  132.843  331.079       215.00
 174.556  127.466    4.405       214.00
   7.028   67.143   40.528       214.00
 159.327  128.013   46.376       214.00
 357.951  145.411   13.983       214.00
 344.188  104.577  143.926       214.00
 172.665   58.731  280.274       214.00
 179.307  147.688  160.204       214.00
 132.327  133.090  269.113       214.00
 350.398  152.685  344.365       214.00
 176.528  141.712   13.426       214.00
 167.758   61.100   87.350       213.00
 358.653   81.971  159.927       213.00
 355.149   49.734  185.700       213.00
 344.796  153.361  178.566       212.00
 173.319   34.475  127.968       212.00
 180.838   98.113  268.687       212.00
 183.417  112.584   34.393       211.00
  26.130  153.230  210.215       211.00
 222.816   37.730  356.844       211.00
 346.748   33.499  184.431       211.00
  21.957   40.786  330.400       210.00
 212.188   43.367   56.227       210.00
 178.120  116.457  149.899       210.00
 161.866   78.298  272.567       210.00
 182.599   55.364  113.511       210.00
 351.659  133.108  188.949       209.00
 188.389   47.076   93.856       209.00
 196.933   57.736  268.241       208.50
 348.924  144.936  146.844       208.00
 351.646   82.082  169.918       207.00
 194.020   36.455  292.490       207.00
   2.460  140.098  145.492       207.00
 197.199   35.705   57.228       207.00
  14.524  112.342  183.505       206.00
 179.890   40.443   99.637       206.00
 197.955  148.730  203.664       206.00
 149.197   14.297  120.339       205.00
 354.267   82.346  152.313       205.00
   5.604   79.472  169.529       205.00
 101.406  163.325   94.866       205.00
 184.073  130.969   10.486       204.00
   3.771   85.725  205.211       204.00
  93.254   93.786  332.560       204.00
 186.783   39.928   72.041       204.00
 316.631  154.830  302.295       203.75
 319.385   25.084  252.620       203.00
 278.466   83.832  167.166       203.00
 151.241  131.946  327.721       203.00
  67.814  176.728  254.109       203.00
 232.915   29.618   40.189       203.00
 358.234   44.368  145.100       203.00
 343.538   49.990  197.419       202.00
 180.436   47.977   86.147       202.00
 331.981  138.907  149.915       202.00
 277.309  143.671   78.652       202.00
  24.094  135.023  214.878       202.00
   0.030  141.982  196.077       201.75
 233.779  136.708  232.314       201.00
  15.202  141.547  181.299       201.00
 197.038   86.219  164.814       201.00
 180.512  143.948  189.407       201.00
 104.556   33.715  159.401       201.00
 359.329  128.754  350.761       201.00
 173.384  127.342  155.321       200.00
 118.192   33.344  134.882       200.00
 262.256   85.057   83.814       199.00
 207.508   30.369   87.342       199.00
 358.389   99.673  159.186       199.00
 192.975  126.962  151.299       199.00
 109.927   69.912  340.359       199.00
   5.004  104.148   21.263       199.00
   3.184   48.081  167.936       199.00
 358.218   59.305  182.532       198.00
  12.434   16.541  244.067       198.00
  24.819   57.494   47.851       198.00
 191.617  144.802  180.949       198.00
   1.573   35.309  209.956       198.00
   0.509   34.266  156.707       198.00
 100.931  158.969   82.587       197.62
 177.637   94.084  199.320       197.00
  54.579  144.787   23.289       197.00
 217.193   33.283  278.523       197.00
   3.460   18.720  219.451       196.00
  28.622  143.388  216.590       196.00
 170.587  134.014  312.488       196.00
 311.396  157.627  302.534       196.00
  24.580  146.698   29.876       196.00
 187.203   84.844  274.544       195.50
  11.633   57.257  192.057       195.00
 183.391   47.560   82.965       195.00
   3.811   19.450  182.880       195.00
 345.771   43.007  193.239       195.00
   6.094   67.958  192.379       195.00
 351.523  111.328  164.908       194.00
 349.274  130.294  181.152       194.00
 177.677   89.560  264.389       194.00
 175.681   86.804  221.666       194.00
 356.799  109.705  153.841       193.00
 358.442   80.403  143.144       193.00
  64.479   32.381   21.340       193.00
 330.130   22.811  205.088       193.00
 174.880  101.854  180.157       192.00
 220.362   13.360   79.850       192.00
 167.433   37.392  134.004       192.00
 185.117   39.116   90.077       192.00
 189.285  127.659  303.087       191.00
 175.806   31.906   80.981       191.00
   9.716   30.304  180.482       191.00
 154.301   48.483  143.632       191.00
   2.990  150.294  154.562       190.00
 120.432   96.252  304.475       190.00
 201.698   64.366   72.939       190.00
 180.657   78.937   87.329       189.00
 174.231  125.738  154.922       189.00
 353.692   42.371  166.482       189.00
  21.491  135.419  358.642       189.00
   4.353   86.696  205.880       188.00
 181.625  133.605  178.788       188.00
 330.591  139.882  130.727       188.00
 181.972   55.349   83.755       188.00
 358.646  135.842  196.212       188.00
 319.340  147.653  330.614       188.00
  49.551  135.532  237.318       188.00
 212.483   43.532   56.763       188.00
 152.885   33.046  317.010       188.00
   3.809  107.507  170.807       187.00
 353.228   13.744  160.733       187.00
 178.612   60.437   49.998       187.00
 193.400   38.994  301.872       187.00
 268.459  154.213  266.179       187.00
 182.696  137.775  183.678       187.00
 195.292  147.230  191.938       187.00
 258.268   25.789   36.766       187.00
 199.577  143.276  202.697       187.00
 185.083   54.931   73.065       187.00
 132.106   34.354  128.753       186.21
 329.276  129.256  346.424       186.00
 347.521  107.978   61.863       186.00
 271.578   98.630   95.587       186.00
 184.792   81.786  256.294       186.00
 357.560  100.928  163.572       185.00
 175.423   70.013  103.075       185.00
   7.424   89.676  169.911       185.00
 172.845  122.460  177.045       184.00
 172.703   52.511  115.378       184.00
 190.391  136.090   24.884       184.00
  29.588   62.345  202.053       183.00
 177.855   46.775  110.638       183.00
 155.968  141.718  112.744       183.00
  59.959   33.443  207.685       183.00
 261.988   84.667   48.154       183.00
 304.919   33.965  252.195       183.00
 177.690   96.766  265.259       182.00
 356.903   44.236  151.497       182.00
 317.526  151.494  184.010       182.00
 235.846   33.183   38.091       182.00
 334.326   33.793  201.422       182.00
 357.897   87.580  177.935       182.00
 206.301  158.981   38.593       182.00
 187.540  125.502  143.570       182.00
 356.395   93.603  148.865       181.00
   9.322   84.440  150.409       181.00
  11.117  125.221   17.269       181.00
 185.275   38.735   81.680       181.00
  19.773   95.971  212.834       181.00
 349.536   56.574  165.027       180.00
 188.514  101.515   72.127       180.00
 166.286   64.039   64.914       180.00
 170.915  129.124  139.284       179.00
 179.899   71.007  112.969       179.00
 185.057   40.292   90.486       178.00
 194.803   43.844   91.030       178.00
 177.930  116.975  142.508       178.00
 172.732   72.518  265.769       178.00
  21.848  119.523  193.876       178.00
 140.816  162.237  121.628       178.00
 324.671  138.965  142.149       177.00
  91.244   96.472  122.348       177.00
 268.801  165.402   80.487       177.00
 195.015  111.521   92.924       177.00
 179.672   90.520  218.142       177.00
 322.337  136.274  147.909       177.00
 190.487  148.710   31.674       177.00
 174.561  146.513  138.867       177.00
 166.753   21.615   94.673       176.00
 346.701  127.052   15.973       176.00
 354.367   31.313  221.711       176.00
  77.797   13.957  190.609       176.00
 357.287   46.637  207.752       176.00
 355.212   28.905   51.122       176.00
 345.910  135.927  171.107       176.00
 159.453  172.337    3.538       175.25
 359.987   85.503  185.698       175.00
 350.910   64.872  154.628       175.00
 162.686   36.707  316.090       175.00
 163.986  143.586  176.063       175.00
 258.640  149.666  248.076       175.00
   5.928   90.502  204.400       175.00
  34.552   17.745  149.506       174.00
  18.142  114.571  150.431       174.00
 275.193  154.763  131.565       174.00
 328.476   47.882  240.170       173.50
 190.350   37.464  110.288       173.00
  11.615  152.657  187.290       173.00
 150.729   89.849  252.536       173.00
 212.137   46.135   73.465       173.00
 101.381  102.246  303.990       173.00
 177.619   37.196   84.677       173.00
 178.562   79.802  106.220       173.00
 207.691   43.942   86.799       172.00
 195.441   84.716  206.878       172.00
 332.613  153.785  342.563       172.00
 170.167   71.945  118.840       172.00
 193.227   39.761   68.910       172.00
   0.000  123.935  181.981       172.00
 183.817  131.483   10.215       172.00
 178.195  136.722  154.611       172.00
 184.722   92.680  139.178       171.00
 159.358   49.033  143.869       171.00
 219.285   36.954  280.014       171.00
 132.884  123.645   83.065       171.00
 178.177  102.445   47.114       171.00
 178.886   33.939  315.944       169.54
 165.713  142.248  136.826       169.00
 127.151   27.934  125.666       169.00
 138.748   47.459  114.117       169.00
 172.975   46.056  102.107       168.00
 148.726  130.643  146.823       168.00
 354.466   77.620  176.110       168.00
  98.748  128.862  277.184       168.00
 181.766   44.169   92.654       168.00
 178.489   90.804  142.062       168.00
  21.502   48.523  223.879       168.00
  16.307  100.828   44.067       168.00
 182.855  161.656  142.119       168.00
 190.852   81.329  250.815       168.00
 172.078   46.612  144.041       167.00
 196.328  116.288  133.664       167.00
 340.788   82.897  146.672       167.00
 168.825   83.281  206.371       167.00
   2.739   45.161  248.948       167.00
  40.044   38.443   55.382       166.00
 344.593  102.026  144.367       166.00
 162.462   58.423  128.025       166.00
  56.131    4.547  133.700       166.00
 167.982  147.757  150.033       166.00
  12.666   25.919  105.377       166.00
  54.437  149.450   21.514       165.00
  13.885   94.720   35.031       165.00
 356.557   96.187  153.186       165.00
 268.687  103.780  150.721       165.00
 164.065   57.180  152.685       165.00
 336.680   71.112  185.321       165.00
 153.508   85.808   76.437       165.00
  23.642   24.057  227.243       165.00
 183.204   19.962  287.781       164.00
 359.451   22.336  232.182       164.00
 187.321   42.904  123.921       164.00
 187.810  142.906  307.429       164.00
  10.308   84.875  101.982       164.00
 147.170   25.668   87.711       164.00
 340.781   56.467  333.328       163.25
  16.630  135.512  335.630       163.00
 321.691  148.848  318.165       163.00
 162.652   95.420  193.791       163.00
 181.930   91.904   50.664       163.00
 353.777   94.701  142.777       163.00
 173.160  143.281    7.335       163.00
 191.914  133.902   30.139       162.00
 187.043  140.044  156.125       162.00
 175.649   47.625   70.884       162.00
 234.029   20.726  266.987       162.00
 165.056  152.694  149.597       162.00
 201.409  155.562  213.133       161.25
  79.558   86.566  216.864       161.00
 182.916  125.334  149.562       161.00
 359.691   57.011  166.626       161.00
  76.431   87.615  308.308       161.00
 192.952  132.527  187.589       161.00
 179.615  127.476   88.493       160.00
 199.363   85.542  269.019       160.00
 176.683  118.404  188.927       160.00
 201.662  129.657  190.877       160.00
 182.202  127.654  327.393       159.00
  52.132  153.052  239.963       159.00
 243.124  151.840  224.908       159.00
 335.300   19.840  189.415       158.00
 152.315  141.085  129.124       158.00
  17.872   26.214  147.812       158.00
  28.869  123.993  359.987       157.00
   1.238  153.929  179.898       157.00
 162.398  131.678  292.559       157.00
 181.228  103.660   46.983       157.00
 172.560   50.236  139.945       157.00
  17.428  160.592  224.851       157.00
  70.496  131.295   21.110       157.00
 175.903   34.384  109.556       157.00
   6.195   64.504   86.626       157.00
 182.946  135.501    9.569       157.00
 339.012  142.235  153.672       157.00
 331.931   52.011  199.119       156.00
 169.955  115.543   46.674       156.00
 163.328   53.178  296.979       156.00
 350.298   92.245  146.820       155.25
 175.647   95.657  159.803       155.00
 188.455   32.690   78.635       155.00
 240.608  147.069  215.345       155.00
 178.664   70.749  141.380       155.00
 181.839   39.151   72.610       155.00
 193.535  118.052   28.648       155.00
  18.225   21.750  195.633       155.00
  99.634   26.132    2.177       155.00
 156.026  107.687   80.012       154.00
 351.601  157.654  180.146       154.00
 314.112  150.780  293.797       154.00
 350.477   26.997  198.727       154.00
 178.402   46.323   98.565       153.00
 332.317   36.198  199.652       153.00
 158.305  144.604  112.875       153.00
 196.843  141.637   29.501       153.00
   9.214   46.560  321.833       153.00
 350.425  105.926  139.134       153.00
  84.277  164.649   70.947       152.00
 317.891   91.163  139.198       152.00
 325.622    4.184  140.717       152.00
 352.585   75.369  154.017       152.00
  18.930  139.437  200.455       152.00
 159.175  166.434  126.567       152.00
 175.775   94.731  219.098       152.00
 228.101   28.972   38.111       152.00
 344.123   61.470  200.619       151.00
 330.310  103.910  160.632       151.00
 177.262   56.167  172.171       151.00
 166.006   58.041  185.946       150.58
 166.241  121.271  159.818       150.00
 261.337   99.974  210.198       150.00
 290.845   97.552  327.993       150.00
 218.988   33.554   49.541       150.00
 177.770  109.110   30.890       150.00
 192.935  141.372  195.296       150.00
 175.519   61.191  111.958       150.00
 347.391  128.916  173.376       149.00
  15.938  128.679  207.117       149.00
 190.740  136.719  188.673       149.00
 187.639   29.424   69.033       149.00
 268.563   84.128   15.917       148.00
 271.703  152.631  274.169       148.00
   9.032  138.782  352.930       148.00
 180.034  163.290  156.334       148.00
 202.097  156.927  198.314       148.00
   1.909   42.062  224.053       148.00
   9.236  140.902  314.804       148.00
  24.930  160.461  235.080       147.00
 166.092    8.895   79.235       147.00
 276.187  156.912  273.458       147.00
 188.284   87.877  266.748       147.00
 163.846  138.505  144.816       147.00
 181.387   39.775  123.622       147.00
 351.437  124.458  181.704       147.00
 190.431  102.985  180.781       147.00
 176.265   90.991  261.671       147.00
 192.008   56.623  268.907       146.00
  74.867   21.691   31.272       146.00
   3.145  141.279  168.042       146.00
 188.216  144.225   22.825       146.00
 212.017  147.826   47.695       146.00
  59.383  146.146   50.142       146.00
 194.312   76.280  101.968       146.00
   9.082  137.117  193.537       145.79
 183.684  112.472  163.059       145.00
 170.716  155.964  165.470       145.00
 176.716  101.869  160.121       144.00
  12.601  152.410  222.433       144.00
  33.211  137.199  218.029       144.00
 140.142  140.270  261.404       144.00
  20.729  148.445   20.244       144.00
  69.986   20.456   48.473       144.00
 345.031   31.682  181.944       144.00
 163.898  114.688  156.342       144.00
 184.026   67.024  282.568       143.00
 264.900  105.140  189.599       143.00
 186.570   43.520  100.111       143.00
 179.733   67.002   81.254       143.00
 315.028  132.563  338.054       143.00
 353.279   70.434   25.203       143.00
 275.344  104.367   30.914       143.00
 207.488  148.175   51.678       143.00
 325.709  143.956  316.903       143.00
 160.430  129.258  164.606       143.00
  92.419   93.270  320.741       142.00
 269.711   67.954   44.648       142.00
 161.853   34.467  115.132       142.00
 170.963  140.644  179.447       142.00
 311.320   32.743  276.130       142.00
 274.489  142.058  265.187       142.00
 159.411  165.875  141.219       141.00
 103.745  124.275  351.745       141.00
 179.909   70.358  261.921       141.00
 161.041  162.909  131.306       141.00
 108.772   92.205  141.081       141.00
  18.060  144.775  192.437       141.00
 181.695   63.103   98.842       141.00
 173.098   93.234   31.546       141.00
 158.146  133.807  144.640       140.00
   2.365  114.032   19.165       140.00
   0.967   71.700  212.157       140.00
 195.905   43.072   95.582       140.00
 115.425   75.712  136.686       140.00
 213.884  123.178   29.244       139.00
 196.026   29.742   50.779       139.00
 241.724  177.733   31.618       139.00
 341.692   95.725  150.165       139.00
   6.615  121.346   29.284       138.58
 301.770   99.516  207.194       138.00
 163.594   63.474   97.761       138.00
 251.303   35.696   48.654       138.00
  11.244  123.672  174.055       138.00
 196.809  146.283   43.719       138.00
 185.785   82.266  221.363       138.00
  10.056  131.130   25.872       138.00
   8.628   83.936   39.553       137.00
 350.458   62.365  139.229       137.00
 180.186  135.995  156.617       137.00
   0.227  102.797  167.847       137.00
  12.024  119.087  190.419       137.00
   3.814   57.570  189.906       137.00
 357.012   39.703  198.844       137.00
 115.008   30.954  209.014       136.00
 334.852   40.723  217.953       136.00
 331.212   20.711  189.554       136.00
 106.018   67.146  330.621       136.00
 352.096   61.558  187.457       136.00
 165.160  148.892  170.855       136.00
 354.459  119.871  173.376       136.00
 350.959  105.640  170.564       136.00
 328.782   66.834  335.576       136.00
 353.830  109.920  182.403       135.00
 186.308   77.030  111.235       135.00
 170.175   44.716   54.864       135.00
 168.168  135.451  159.052       135.00
 121.500   97.661  278.175       134.00
 155.364   27.309  318.120       134.00
 351.371  114.186  167.283       134.00
 187.160   15.400   77.687       134.00
  20.840   56.126  200.594       134.00
 198.417  159.275  198.849       134.00
   6.928  103.223   31.865       134.00
 273.615   95.127   19.247       133.00
   1.874   42.382  219.007       133.00
 182.796   64.587   90.059       133.00
  42.737   39.481   76.903       133.00
 296.554   24.574  278.614       133.00
 190.318  115.644   34.459       133.00
 148.529  168.760  149.541       132.00
 334.388  151.472  147.594       132.00
 358.906   91.518  153.722       132.00
 180.536  124.933  158.970       132.00
 343.133   53.778   38.060       132.00
 200.883   65.696  255.192       132.00
   1.541  113.711   39.610       132.00
 196.972   46.419   79.206       131.00
 194.327  141.375   22.071       131.00
  41.526   28.699  199.417       131.00
 190.889   16.946   46.236       131.00
 175.932   41.023  125.333       131.00
 271.498   92.915   78.227       130.00
 350.461   27.393  184.728       130.00
 355.512  155.001  173.394       130.00
 357.702   92.543  159.368       130.00
 176.829  131.045  167.764       130.00
 350.846   37.774  209.179       130.00
 190.275   78.473  206.912       130.00
  91.049   25.596  343.052       130.00
 198.323  144.885  133.430       130.00
 208.475   90.559  102.105       130.00
 330.457  148.577  154.583       130.00
 358.288    8.562  273.917       130.00
 148.494   45.465  129.751       129.00
 165.225  136.060  125.061       129.00
 183.365   45.488   73.782       129.00
 340.132  103.572  161.837       129.00
 201.501  140.215  202.627       129.00
 188.214   36.538   72.715       129.00
 339.580  150.674  152.160       129.00
 181.865   97.297   95.531       129.00
 229.402  147.316  227.001       129.00
 355.372  139.189  170.149       128.00
 359.820   59.050  172.950       128.00
 347.509  147.878  163.633       128.00
 335.311   27.018  263.924       128.00
 191.664  132.034   39.393       128.00
 263.378   97.856   91.000       127.00
  13.739   43.208  220.974       127.00
 173.361   71.544  278.117       127.00
 243.066  147.600  206.879       127.00
 192.026  143.401   26.986       127.00
 347.201  121.424  349.630       127.00
 190.452  137.883   29.111       127.00
 169.642  136.573  168.373       127.00
 157.516  137.784  325.479       127.00
 147.894   47.497  145.389       127.00
 330.688  147.762  138.642       126.79
   3.498   76.086   94.206       126.00
   7.051  136.937  183.732       126.00
 195.007  149.480  183.245       126.00
 156.268   47.449  124.387       126.00
 334.707   60.619  170.994       126.00
 195.285   43.567   83.340       126.00
 290.122  109.468  260.181       126.00
 353.720  156.958  356.556       125.50
 344.131   22.620  187.017       125.00
 169.560   56.731   17.129       125.00
 235.687  161.352  254.135       125.00
 283.302  161.459  271.232       125.00
 353.056  141.795  343.606       125.00
   0.675   93.603  152.517       125.00
 328.846  153.011  133.941       125.00
  79.411    7.972   28.345       125.00
 320.571  137.575  209.207       124.00
 342.782   74.126  108.648       124.00
 195.847  103.804   99.257       124.00
 221.274  143.976   37.416       124.00
 289.741  144.452  100.724       124.00
 313.775  124.447  151.301       124.00
 146.846   72.921   91.746       124.00
 228.600   38.409   67.236       124.00
 196.290  147.711   29.954       124.00
 169.005   55.365  130.928       124.00
 184.167   28.986  288.138       124.00
 187.767  112.041  202.127       124.00
 203.191  157.191  198.197       124.00
 314.218  103.319   88.883       123.00
 256.548  143.367  252.869       123.00
  14.769   43.197  219.037       123.00
 174.520  104.245  193.410       122.00
 353.217   82.007  152.077       122.00
 190.424   92.671  103.604       122.00
 104.237   73.637  336.172       122.00
   3.376  106.949  213.120       122.00
   4.741   38.722  220.787       121.00
 355.194   31.889  192.807       121.00
 204.679  130.893   44.618       121.00
 178.036   38.454   96.522       121.00
  76.333   22.812   19.921       121.00
 354.776   89.554  161.711       121.00
 276.540  125.475   74.794       121.00
 181.078   99.556  202.734       120.00
 193.260  110.828   74.996       120.00
 319.472   20.282  281.368       120.00
 201.132  144.179  201.590       119.00
  61.814   44.832   43.611       119.00
 277.264   87.005   39.973       119.00
 175.386  140.956  339.078       119.00
  44.335  149.712  234.944       119.00
 187.288  104.244   86.041       119.00
 181.163  152.699  153.186       118.00
 182.660   99.301  274.506       118.00
  90.158   76.518  347.719       118.00
 355.115   54.204  158.114       118.00
 329.847  161.239  176.869       118.00
 114.747   89.188  340.614       118.00
  47.499  157.082  224.209       118.00
  79.474  108.842   34.444       117.00
 348.886   95.629  157.691       117.00
 104.190   70.193  117.135       117.00
 166.988  134.979  165.588       117.00
  82.167  103.502  289.379       117.00
  97.479   88.664  331.552       116.00
 160.678   24.801  304.519       116.00
 174.619  123.380  162.768       116.00
   3.791   91.516  157.427       116.00
  16.112   94.560   19.352       116.00
 175.670   44.926   73.051       116.00
  32.997  139.909  223.403       116.00
   0.086   46.285  178.630       116.00
  71.053   81.638   10.316       116.00
   2.639  107.529  184.270       116.00
 191.928  137.942   23.955       115.00
 192.406  145.528  173.797       115.00
  15.069  143.425   13.266       115.00
 185.708   38.837   89.459       115.00
  77.987   92.225  221.690       115.00
 136.880  172.081  125.718       115.00
  10.917  120.777  193.472       115.00
 185.872   38.476   84.028       115.00
  99.054   91.458   79.981       115.00
 143.057  165.279  133.856       115.00
 125.828   36.964  109.641       115.00
 173.849   42.638  109.631       115.00
 259.606   95.001   72.143       115.00
 348.757  158.645  337.041       114.00
 113.201   85.796  327.078       114.00
 177.728   42.313  293.473       114.00
 113.831   68.207  329.854       114.00
 168.031  135.859  152.247       114.00
 164.852   54.184  151.158       114.00
 336.484  142.574  327.146       114.00
  85.925  103.726   49.459       114.00
 158.285  169.860  166.204       114.00
 353.982  122.028   24.257       114.00
 138.997  148.797  100.324       113.42
  27.413   38.864  240.643       113.00
 264.114   28.593   26.706       113.00
 345.574   89.440  153.624       113.00
 180.364  117.567  162.956       113.00
 176.049  122.373  160.341       113.00
 236.435   15.922   36.379       113.00
   6.147  144.131    0.261       113.00
 320.178  152.992  308.409       112.50
 341.348  152.278  351.332       112.00
 272.942   57.061   27.643       112.00
 340.171   40.095  347.833       112.00
  10.038   95.348   28.488       112.00
   6.152   36.716  209.039       112.00
 226.547   35.378  260.352       112.00
 358.069   90.942  148.889       112.00
 354.214   59.135  170.125       111.50
 357.491  132.124  167.121       111.00
 271.913  156.276   54.385       111.00
   6.803   58.400  159.610       111.00
  63.516   83.959  209.750       111.00
 343.564  157.473  338.677       111.00
 193.613   11.608  287.051       111.00
 152.839  155.531  121.991       111.00
 176.615  138.657  162.489       111.00
 190.129   79.721  263.300       111.00
 187.842   39.975   32.354       110.00
 179.556   32.464   86.048       110.00
  32.808  140.058  218.877       110.00
 359.144   75.701  167.885       110.00
 357.464   73.104  174.552       110.00
 168.327   54.456  131.440       110.00
 190.140   17.682  288.334       110.00
 111.877   87.077  349.432       110.00
 175.169   77.168   74.661       110.00
 336.330   90.519  159.900       110.00
  82.369   76.443  331.010       110.00
  14.938  125.903   14.665       109.00
 191.579  137.889   22.376       109.00
 195.280   43.247   95.298       109.00
  59.327   21.914  224.826       109.00
 354.683  140.973    8.925       109.00
 191.929   56.801   65.441       109.00
 121.692  140.744   99.687       109.00
   3.542   26.917  170.701       109.00
 325.550   45.543   89.105       108.00
   1.110   83.825  193.824       108.00
  14.645   68.664  201.105       108.00
 108.442   40.338  148.790       108.00
 168.816  125.871  153.464       108.00
 186.478   64.363   46.998       108.00
 203.336   56.742  106.087       108.00
  88.330   85.951  351.843       108.00
 159.659   34.497  302.831       108.00
 206.312   32.064  276.326       108.00
  14.350   58.358  134.350       107.00
 202.310   51.967   68.120       106.50
 174.648  125.412  172.110       106.00
 106.458   84.239  326.249       106.00
 167.236   30.749  133.509       106.00
 176.457  120.073  144.325       106.00
 181.983   50.260   91.164       106.00
 217.127  154.786  230.762       106.00
   5.122   79.881  165.697       106.00
 169.035   43.501   91.592       105.04
 357.760  138.308   27.105       105.00
  36.781    9.159  167.039       105.00
 205.695  144.609  203.167       105.00
 190.874  100.385   85.640       105.00
   7.545   84.702  208.203       105.00
 254.202   77.103   34.121       105.00
 184.791  140.589  284.541       105.00
 169.326   88.093  196.272       105.00
 264.560   81.560   43.275       104.00
  97.557   85.792  140.229       104.00
 324.546  141.566  152.035       104.00
  29.119   35.024  127.895       104.00
 123.163   31.490  215.103       104.00
  83.934   68.840    3.817       104.00
 186.720   30.165  293.282       104.00
 198.180   66.908  202.020       104.00
 352.279   56.062  180.528       104.00
 297.695   88.648   16.110       104.00
 209.450   27.607  276.301       104.00
 265.643   79.326   92.656       104.00
 186.860  151.930  173.924       104.00
   8.750  106.756   34.429       103.00
 159.966  148.902  104.749       103.00
 355.710   60.431  172.424       103.00
 342.077   49.835  139.051       103.00
 172.852  113.347  280.845       103.00
 180.603   21.672  284.562       103.00
 189.408   92.619  187.699       103.00
 112.434   88.832  344.484       103.00
 324.441   47.247  219.244       103.00
 152.774   65.843   76.263       102.25
 107.489   63.530  134.397       102.00
 165.473   60.187  107.114       102.00
 356.802   78.946  195.685       102.00
 186.028  134.351  184.983       102.00
 190.239   67.896   94.919       102.00
 197.911  101.144  148.115       102.00
  46.052  163.603  217.345       102.00
 237.863   35.129   50.703       102.00
 357.164   37.992  226.688       101.00
 138.079   28.902  335.132       101.00
 174.230  143.862   33.835       101.00
 175.562   93.861  260.450       101.00
 152.278  125.119   70.461       100.00
  10.416   60.469  219.350       100.00
 164.503   97.502   52.465       100.00
 187.671   44.829  121.335       100.00
 202.010   91.663  163.876       100.00
 356.561   83.816  154.838        99.00
 356.004   98.412  198.659        99.00
 108.715   88.650  338.991        99.00
 276.623   63.459   45.912        98.00
 342.081  124.270  168.694        98.00
 170.864  116.963   18.612        98.00
 208.538   10.926  262.498        98.00
 227.114   87.869   92.129        98.00
 190.734  136.117   28.371        98.00
 351.223   84.830  175.286        97.00
 326.264  128.694    5.580        97.00
 220.975  143.835   53.590        97.00
 264.522   96.576  351.151        97.00
   9.989   89.859  208.558        97.00
 347.272   59.509  152.707        97.00
 169.408  105.489  150.650        97.00
 151.799   29.407  312.099        96.37
 190.022   52.074  273.718        96.00
 244.779   32.779   34.513        96.00
  72.892  120.084  231.414        96.00
  76.448  171.924   83.350        96.00
 157.108  142.163  137.366        96.00
 195.705   73.984  101.142        96.00
 321.026  151.465  344.929        96.00
 184.786  139.413  168.690        96.00
 149.773   43.507  315.743        96.00
 175.834   56.808  117.971        95.00
 278.725  103.984   89.368        95.00
 264.202  106.523  352.893        95.00
  18.822  155.254   19.621        95.00
 267.520   68.915   78.763        95.00
   7.904  147.009  345.546        95.00
 355.145  100.533  170.110        95.00
 180.904  117.780   62.738        95.00
 225.612  162.543  202.875        95.00
   9.931  112.840  212.020        95.00
 170.160  128.583  154.338        94.00
 333.562  155.275  152.379        94.00
   0.154   51.419  212.213        94.00
 350.878   77.706  162.785        94.00
 136.808   87.534  284.027        94.00
  15.139   50.339  226.619        94.00
   6.649  163.413  213.781        94.00
 345.314  115.588  167.428        93.00
  65.784  119.841  278.901        93.00
 229.082   27.904   30.040        93.00
 315.930  143.176  318.001        93.00
 154.971   48.969  149.634        93.00
 286.985   96.537   74.518        93.00
 270.533   78.954   36.875        93.00
 194.495   37.821  281.073        93.00
 218.830   23.286   69.299        93.00
 293.421   89.069  198.234        93.00
   7.024  111.761  201.780        93.00
   5.584   62.420  181.424        92.00
 355.548   95.313   28.621        92.00
   3.460  149.801   13.572        92.00
 183.584   34.493  101.404        92.00
 185.148   44.260   73.228        92.00
 156.992  164.233  156.047        92.00
 172.963   86.860  207.530        92.00
  70.480   26.844   19.233        92.00
 223.993   31.662   42.350        92.00
  26.800  150.150  220.321        92.00
   0.960   84.872  109.721        92.00
 245.841  106.854   23.992        92.00
  89.786  108.316  332.359        91.00
 347.244  149.790  349.868        91.00
 172.555   41.646  113.507        91.00
 347.075   45.673  194.575        91.00
  32.488  157.223   22.268        91.00
 346.293   27.309  222.586        91.00
 113.422   92.851  117.314        91.00
 100.426   88.666  331.000        91.00
 215.791  140.361   16.258        91.00
 274.954   33.380  358.622        91.00
 185.606   99.933  114.538        90.00
 346.819  107.903  135.107        90.00
 174.431   72.685  288.564        90.00
 182.258   53.217   78.935        90.00
 219.713   34.078   62.612        90.00
 358.010   86.254  159.342        90.00
   2.889  144.491  341.981        90.00
  88.317   62.327  337.750        90.00
 100.773   32.047    0.008        90.00
 357.648   88.937  150.418        90.00
 307.140  142.450  114.406        89.00
 279.795   82.516   62.510        89.00
 353.601   70.096   24.933        89.00
 350.206   36.921  307.423        89.00
   0.689  147.868  347.742        89.00
 174.145   85.058   61.313        89.00
 169.155   27.556  293.600        88.79
 358.544   92.046  156.130        88.00
 217.350   21.950   83.586        88.00
 181.459   71.713   83.823        88.00
  99.283   87.705  346.217        88.00
 339.927  100.634  160.440        88.00
 319.893  106.522   42.374        88.00
 161.505  127.171  165.396        88.00
 267.756   74.538  190.558        88.00
 101.609   62.379  143.572        88.00
 245.722   36.465   38.712        87.50
 357.349   93.626  204.276        87.00
 343.866   64.092  166.622        87.00
 179.264   33.575   86.423        87.00
 353.297   85.281  138.265        87.00
 189.220   20.384   85.874        87.00
  10.841  140.600  200.774        87.00
 161.926   26.852  322.639        87.00
 185.637   38.844   79.520        87.00
 296.587   77.404   39.796        87.00
 354.031  133.562  165.709        86.62
 353.236  126.656  167.736        86.00
   7.313   37.022  225.735        86.00
  10.834  145.433  188.470        86.00
 184.177  116.400   15.727        86.00
 166.055  140.045  166.601        86.00
 104.204   92.838  341.427        86.00
  19.388  151.447  220.305        85.42
 104.632  101.332   26.553        85.00
   9.360   91.760  159.149        85.00
 177.429   44.496  106.820        85.00
 187.024   47.802   82.797        85.00
 341.772   53.675   50.294        85.00
 324.804  152.911  120.573        85.00
 182.072  121.843  164.117        85.00
 220.196   45.658  273.932        85.00
  14.527  123.042  199.686        85.00
 185.952   48.719   69.515        85.00
   1.605  130.469  168.364        85.00
 102.874   99.338  133.605        85.00
  28.529  148.363   14.704        85.00
 169.596   29.098  104.914        84.00
 176.746  148.722  146.462        84.00
 334.339   54.791  185.597        84.00
 191.947   97.804  206.663        84.00
   3.259  130.941    4.113        84.00
 268.185  144.062  275.164        84.00
 252.607  102.236   92.846        84.00
  19.796   33.470  100.071        84.00
 355.328   90.893  180.723        84.00
 237.023   64.658   34.975        84.00
  13.024   73.375  208.335        84.00
 185.249  101.652  112.233        83.00
  78.237   87.606   12.815        83.00
 221.583  138.204   47.346        83.00
  21.163  148.542  359.425        83.00
  84.548   83.712   26.453        83.00
   7.224   63.126  183.958        83.00
 346.867   86.943  161.523        83.00
  68.264   72.031  203.053        83.00
  97.434   77.190  336.910        83.00
 112.034  106.742  284.807        83.00
  13.782   96.421  196.227        82.25
 279.548  150.763  280.238        82.00
 165.571   48.965  141.432        82.00
 266.606   94.292   67.456        82.00
 153.523  136.681  132.585        82.00
 261.211   94.102   38.235        82.00
   8.726  124.241  198.068        82.00
  13.290  130.246  164.987        81.00
  15.602   43.673    3.336        81.00
 196.857  144.029  184.652        81.00
 164.304   48.675   73.988        81.00
 343.832  107.748  161.547        81.00
   3.746  154.673    9.836        81.00
  12.216   84.848  170.981        81.00
 176.155   23.617  103.134        81.00
   1.575  129.642  152.935        81.00
 184.143   50.868  290.748        80.00
 171.799  126.415  158.602        80.00
  44.543   35.634   24.352        80.00
   7.472  120.929  200.030        80.00
 255.491   77.319   27.786        80.00
 179.431   61.250  278.746        80.00
 240.865   82.767   82.120        80.00
   3.758  138.529   22.218        80.00
 357.376   65.547  158.007        80.00
 168.978   47.344   90.913        80.00
 196.869   58.762  110.730        80.00
  75.890   17.425   32.182        79.00
 347.916   46.990  158.028        79.00
 264.894   91.140   48.671        79.00
 336.485  144.358  168.137        79.00
 348.970   38.336  173.022        79.00
  19.565  120.852   20.178        79.00
   0.791   43.062  152.971        79.00
  61.718   76.457   19.486        79.00
 140.683  126.138  127.526        78.25
 350.475  149.785  158.275        78.00
 235.108  145.466   84.681        78.00
 102.617   81.770  324.822        78.00
 191.518   54.233  277.358        78.00
  90.267   72.896  106.752        78.00
 339.691   49.920  162.728        78.00
 291.500   98.102  176.443        77.00
 275.067   87.480   40.663        77.00
 358.600   98.126  162.256        77.00
 234.831   73.659   89.267        77.00
   9.363  123.412  215.117        77.00
  18.756   44.387    2.173        77.00
   4.246   87.303   21.513        77.00
 167.062   94.370   78.115        77.00
   0.153  112.098   17.918        77.00
 240.993  167.462   17.289        77.00
   0.031   23.371  256.842        76.00
  76.854   83.095  203.643        76.00
 192.646   60.691  283.048        76.00
  84.186   80.405   26.957        76.00
  29.939   61.078   75.365        76.00
 249.049   90.760   70.447        76.00
 186.225  129.562  149.834        76.00
 268.129  100.393  100.630        76.00
 341.081   20.299  228.692        75.00
 166.300  147.254  155.623        75.00
 345.691   11.107  236.697        75.00
   1.094   99.670  190.601        75.00
 108.567   81.889  344.834        75.00
 155.070   46.130  157.667        75.00
 190.355   48.657  282.390        74.00
  78.316  100.569  211.145        74.00
 198.109  126.512  124.743        74.00
 350.733   85.823  138.772        74.00
 352.771  113.613  168.323        74.00
 204.016   30.719   93.911        74.00
 213.177   45.699   83.314        74.00
 125.915  118.185  275.219        73.00
  32.290   43.410  213.741        73.00
  77.804  143.035   41.373        73.00
 163.628  127.023   18.261        73.00
 315.459   30.669  223.438        73.00
 184.900   82.666  262.279        73.00
 339.213  130.202  329.228        73.00
 112.356   56.078  119.051        73.00
 179.933  157.449   22.055        72.13
 355.813   95.641  164.910        72.00
  29.596  138.043  182.318        72.00
  95.819   99.187  326.861        72.00
  87.255   97.326  208.724        72.00
  15.477   27.844  226.024        72.00
 108.042   73.886  334.433        72.00
 175.118   95.569  216.065        72.00
  44.745  131.955  199.668        72.00
 193.342   83.519  100.072        72.00
 107.336   91.546  332.560        72.00
  88.410  102.545  315.237        72.00
   0.982   40.771  167.021        72.00
 104.575   92.361  334.688        72.00
 202.281   63.141  253.106        71.00
  37.671  135.761  191.900        71.00
  15.820  154.052  205.578        71.00
 356.723   69.436  174.209        71.00
 334.875  147.782  150.439        71.00
 165.804   35.969  100.641        71.00
 176.524   76.129  256.215        71.00
 352.165  102.420  165.627        71.00
  22.904   29.955  179.657        71.00
 257.510  102.360   68.517        71.00
 180.884  158.520  328.080        71.00
 326.181  152.138  322.049        71.00
  82.759   78.814    3.264        71.00
 351.056  111.063  173.062        71.00
  92.022   78.637    3.209        71.00
 150.913   25.846   88.118        70.25
 116.966  163.611  102.015        70.00
 195.676  131.223   24.884        70.00
 358.043   45.655  176.640        70.00
 157.243  138.648  119.666        70.00
  49.794   36.117   62.115        69.00
  14.114   25.329   80.034        69.00
 183.885   32.330   82.896        69.00
  31.288  119.220   18.554        69.00
  21.348  155.910  173.961        69.00
 355.792   64.541  162.204        69.00
 168.066   72.547   23.626        69.00
 165.907  152.719  171.568        69.00
 196.110   52.192  109.132        69.00
 201.409   22.868  286.289        68.17
 176.185  125.359   95.432        68.00
 181.907   54.743   86.458        68.00
 188.612   40.819   91.064        68.00
 152.488   31.264  146.655        68.00
 181.855   79.041  252.574        68.00
 178.375  119.640   24.145        68.00
  32.543  143.716  232.868        68.00
  50.953   20.642   29.206        68.00
 144.708  138.962  127.866        68.00
  71.917   36.838   40.491        68.00
 358.946  124.190  166.423        68.00
  88.231   67.545   94.131        68.00
  94.258   90.954  139.638        68.00
 350.711  114.952    1.533        68.00
 257.587  114.376   79.630        67.00
 210.054   89.099   87.154        67.00
 197.661   39.837   95.800        67.00
 191.410  115.739   21.713        67.00
 349.795  104.471   21.315        67.00
  60.627   84.752  202.113        67.00
 358.947   79.446  150.508        67.00
 345.598   31.296   69.694        67.00
   7.832   67.842  208.604        67.00
   2.231   95.886  207.441        67.00
   7.931  138.270  181.630        67.00
 200.904   80.723   32.246        67.00
  60.416   80.813   23.169        67.00
  88.011   51.374  207.612        67.00
 352.065   63.270  164.559        67.00
  13.958   91.478  157.457        67.00
 356.879   79.790  154.514        66.00
   8.840   88.134  199.083        66.00
 188.343   99.957  214.542        66.00
 175.982  105.283  158.161        66.00
 354.230  109.877  153.309        66.00
 358.865   66.262  204.887        66.00
 153.383   78.482   85.479        66.00
   6.485  125.623  199.201        66.00
 174.506   64.912  276.836        66.00
 357.870   75.587  155.142        66.00
 105.211   80.750  333.853        66.00
 351.130   73.652  153.183        66.00
 114.249  162.491   71.450        66.00
 353.167   52.438  185.412        66.00
  65.841   78.091  226.644        65.00
  83.891   95.237  216.681        65.00
 351.962   88.375  143.124        65.00
  22.691   48.173  226.542        65.00
 338.136  165.656  354.706        65.00
 357.860  120.116  159.937        65.00
 179.224   84.415  211.590        65.00
 177.105   76.994  274.810        65.00
   2.908   80.630  167.275        65.00
 270.600   96.642   98.462        65.00
 232.398  147.688   46.202        65.00
 172.827   54.358  305.675        65.00
 243.006   62.456   24.951        65.00
 353.543  117.202   27.929        65.00
 217.287  163.380  221.263        65.00
 187.584   39.955   72.003        65.00
 169.043   47.408  106.232        65.00
 189.752  126.688   17.655        65.00
 168.266  153.625  132.759        65.00
  23.487  134.024   26.347        65.00
 314.464   16.431  291.768        65.00
 184.753  164.476  188.855        64.00
  21.167  147.290   20.635        64.00
   4.677  124.964  175.519        64.00
 346.570   39.242  208.061        64.00
 181.309   89.488   85.908        64.00
 242.534   33.645   37.057        64.00
   5.743   82.330  203.342        64.00
 177.239   88.456  223.760        64.00
 342.933   48.973  244.228        64.00
 208.437   48.420   67.388        64.00
  28.557   47.825  149.885        64.00
 175.878   40.775  110.431        64.00
 193.875  127.272  115.686        63.00
  11.620  109.003   32.263        63.00
  13.985   30.620  207.887        63.00
 174.431  129.971  167.098        63.00
 267.691   70.245   51.329        63.00
  43.695  155.975  207.826        63.00
  94.032   72.265  341.198        63.00
 166.191   39.311   91.745        63.00
  58.048    8.294  207.450        63.00
 295.209   96.351   83.926        63.00
 264.806  104.170   42.172        63.00
 355.458   96.502  166.342        63.00
  21.198  126.776  350.026        62.00
 195.750  116.318   33.799        62.00
 348.133   48.906  191.201        62.00
 338.717   51.271  280.461        62.00
  86.279  108.560   46.962        62.00
 179.406   50.016   99.828        62.00
  89.181   74.471  253.130        62.00
 158.083   25.244  103.982        61.00
 262.403  113.012  109.158        61.00
 196.026   73.412  100.422        61.00
 356.943  103.328  198.153        61.00
 354.441   36.033  145.477        61.00
 293.161  121.711  319.441        61.00
  51.809   35.066   21.395        61.00
 358.602  123.614   43.931        61.00
 356.153   97.248  168.675        61.00
 333.807  137.374  338.119        61.00
   6.533   64.334  166.319        60.00
 187.211  143.018  177.056        60.00
  10.389   85.660   32.348        60.00
 359.997  115.694   23.572        60.00
 185.975   44.682   92.496        60.00
 271.716   50.104   20.675        60.00
  28.061   29.589  229.628        60.00
 279.753  168.792  268.994        60.00
  88.481  100.308  344.686        60.00
 180.618  137.650   86.496        60.00
  84.694   83.597  206.796        60.00
   9.846   80.845  207.019        60.00
 355.294   45.661  279.253        60.00
 184.392  152.026  150.259        60.00
 332.652  160.029  126.366        60.00
 106.979   62.820  141.454        60.00
 283.545   78.051   37.846        59.00
 355.415  109.533  165.635        59.00
 268.517   88.654    8.173        59.00
 349.116   57.159  178.911        59.00
 343.093  136.728  158.521        59.00
 247.066   66.587   38.269        59.00
 207.729  148.868  213.657        59.00
 108.875   63.090  331.883        59.00
 118.978   79.147  340.563        59.00
 271.239   71.358   53.812        59.00
 231.695   75.614   82.023        59.00
 120.233   47.972  341.405        58.00
 128.564   85.365  318.113        58.00
  84.562   73.347  332.494        58.00
  94.516   77.741  137.353        58.00
  87.294   97.608  354.984        58.00
 271.908   95.011   97.782        58.00
 269.445   83.881   73.327        58.00
  93.091   88.838   31.141        58.00
 185.343   50.608  125.141        58.00
 106.501  145.154   13.016        58.00
 176.162   98.009  162.699        58.00
  84.072   82.312  347.675        58.00
 171.828   96.176  186.122        58.00
 168.729   91.959  227.225        58.00
 190.427   99.413   75.148        57.00
 176.794  122.941    9.440        57.00
 357.000   84.129  171.461        57.00
   6.118   80.926  202.987        57.00
 257.710   89.240   64.030        57.00
 202.269  144.685  203.138        57.00
 183.838  132.883  186.839        57.00
 357.918   42.014  347.654        57.00
 172.153   42.768   97.209        57.00
 191.048   42.010   68.999        56.25
   1.347  141.878  178.722        56.04
 164.226   61.263  126.601        56.00
 100.739   80.699  325.873        56.00
 358.428   45.472  187.313        56.00
 176.090   60.407  137.749        56.00
  97.521   13.088  167.062        56.00
 169.468   52.765  150.866        56.00
 346.230   82.339  160.500        56.00
 280.821   95.739   89.897        56.00
   3.395   83.888  168.362        56.00
 141.586  127.855   96.873        56.00
 352.287   87.410  142.997        56.00
   9.129   48.169  145.062        56.00
 351.173   70.959  171.746        56.00
   8.413  134.237  206.790        56.00
   0.278   75.080  203.435        55.00
 356.480  129.135  198.700        55.00
 353.083  105.033  158.394        55.00
 205.496  138.749  165.815        55.00
 167.136  131.540    5.143        55.00
 188.588   49.826  280.143        55.00
  99.419  107.789  310.893        55.00
 270.825   96.576   99.728        55.00
 168.106  113.965   48.826        54.00
  97.616   88.500  331.328        54.00
 354.330  104.647  166.171        54.00
   6.897   87.811   38.772        54.00
 253.302   72.937   22.633        54.00
 177.101  107.858   88.034        54.00
 337.753   41.584  192.619        54.00
 288.305  113.137  197.898        54.00
 187.572   82.011   92.962        54.00
 161.273  102.923   38.823        53.00
 211.920   34.331   63.080        53.00
 339.996  147.402  149.923        53.00
 263.667   91.661   73.715        53.00
   0.187  105.407  186.445        53.00
 186.647   26.335  301.622        53.00
 183.429  140.492  151.119        53.00
 279.359   92.493   12.609        53.00
  29.998  125.950  208.057        53.00
 306.124   58.095  135.833        53.00
   0.166   23.362  215.593        53.00
  10.408  131.376  201.207        53.00
  15.093  131.960  211.933        52.00
  21.007   55.941  200.166        52.00
   9.470   99.527  212.223        52.00
 287.048   69.814  345.058        52.00
  18.753  146.144  193.760        52.00
 176.976   23.874   87.574        52.00
 355.768   39.944  185.125        52.00
 353.141  142.101  185.932        51.21
 183.059  162.682  181.615        51.00
 149.144  142.793  127.516        51.00
   5.120   84.080  198.288        51.00
 266.884   84.068  348.964        51.00
   2.833   79.513  169.957        51.00
 346.546  115.604  151.362        51.00
 121.456  111.325  104.469        51.00
 208.526  119.293  183.187        51.00
 265.569   95.982   67.937        51.00
  54.490  153.970  302.512        51.00
 351.228   79.157  146.455        51.00
 174.648   91.991   57.276        51.00
  39.197  128.490   28.267        51.00
 345.026  138.486  326.849        50.50
 347.865  115.745  152.024        50.00
  44.679   20.646   83.047        50.00
 267.474  129.959  147.788        50.00
 346.970   91.948  151.949        50.00
 321.504  133.655  133.375        50.00
  15.109   82.104  191.098        50.00
 107.878  139.698  226.222        50.00
   7.876  102.204  175.244        50.00
 118.230  118.901  340.257        49.00
 150.169  136.124  140.729        49.00
 197.500   42.183   86.652        49.00
 348.070   37.984  213.067        49.00
 154.355    6.478  329.310        49.00
 349.118  133.469  151.380        49.00
 265.246  100.976  171.014        49.00
   3.558  146.686  184.142        49.00
 185.518   36.641   80.039        49.00
 172.123   39.135  107.932        49.00
  94.134   83.698    2.883        49.00
  72.283   80.333   18.434        49.00
 149.143   34.711  127.189        48.00
   8.879  100.036  203.736        48.00
  63.176   78.574  209.179        48.00
 359.528   66.897  161.176        48.00
  87.033  104.105   49.411        48.00
 202.144   61.809   78.531        48.00
  96.513   85.577  327.541        48.00
 175.345  133.308    4.207        47.00
   1.793   75.007  198.166        47.00
 211.693  143.034   65.503        47.00
   2.216   87.644  190.301        47.00
 340.876   58.305  148.428        47.00
  81.903   58.553  233.349        47.00
 185.192  154.995  169.931        47.00
 182.545   75.245   39.258        47.00
   7.395   85.777   83.305        47.00
 309.224  135.007  291.987        47.00
 270.019  104.657   71.409        47.00
  82.891   84.162   27.596        47.00
  63.300   50.242  186.564        47.00
 152.503  125.131    4.214        47.00
  80.148   78.443  135.989        46.00
   9.760   86.202  165.597        46.00
 286.091   90.553  149.565        46.00
 150.788   25.600  322.583        46.00
 358.740  105.297  202.149        46.00
 273.412   85.104   87.084        46.00
 187.061  102.052   41.861        46.00
 352.687   86.691  145.405        46.00
  85.712   81.007  147.019        46.00
 193.523  147.801  345.368        46.00
 167.337  144.129  142.883        46.00
  99.230   64.075  339.034        45.00
 120.159   59.812  340.721        45.00
   5.746  128.146  180.324        45.00
 260.796   80.164   59.250        45.00
 138.132   35.434  172.446        45.00
 285.187   81.209   43.338        45.00
 172.221  161.339  154.621        45.00
 268.072  104.118   74.515        45.00
 219.762   71.692   81.034        45.00
 327.934  138.514  150.432        45.00
 175.683   86.717  219.526        45.00
 180.887  119.444   47.624        45.00
 357.010   87.070  148.322        45.00
   8.927   37.140  165.481        45.00
 187.479  126.810  169.968        45.00
 354.234   39.401  184.443        45.00
  88.169   79.422   24.632        45.00
 351.880  100.924  165.123        45.00
  81.064   87.835  355.070        45.00
 188.570   26.582   86.112        44.63
   5.295   95.961  163.807        44.00
 171.953  108.609   31.625        44.00
  84.945   82.169    6.838        44.00
 351.402   56.473  206.981        44.00
 222.978  130.169   79.322        44.00
 350.037  140.387  333.885        44.00
 356.373   57.150  138.821        44.00
 188.443  130.669   11.076        44.00
 188.667   74.814  221.300        44.00
 181.589  154.519   98.169        44.00
 101.656   92.510  143.379        43.00
 346.241   53.569  184.268        43.00
 196.004   75.652   43.495        43.00
 348.944  140.177   23.015        43.00
 141.014  141.562  125.091        43.00
 177.474   89.702  111.671        43.00
  68.857   17.982   38.081        43.00
 176.690  103.893   39.408        43.00
  23.492   41.828  198.833        43.00
 188.484   69.575   80.953        43.00
 116.795   73.885  135.640        43.00
 177.407  130.238  150.179        43.00
 268.199   93.356   89.398        43.00
 187.086  103.436  203.497        42.00
 278.848   97.883   57.055        42.00
 281.397   88.107  162.885        42.00
 359.753   85.927  185.942        42.00
  41.460   45.508  158.650        42.00
 357.882   99.955  157.869        42.00
 346.159  131.567  158.647        42.00
   2.507  101.749  150.298        42.00
  54.329   29.046   35.801        42.00
 152.385  137.455  118.373        42.00
 168.548  127.638    5.637        42.00
 146.270  140.204  128.086        42.00
 266.174   80.696    5.632        42.00
 342.817  132.573  154.465        42.00
   3.223  123.923  164.536        42.00
 241.731   85.886   39.166        42.00
 195.654  114.023   40.881        42.00
 337.246  148.406  154.048        41.00
 188.932  143.620  194.868        41.00
 192.137  145.646  176.183        41.00
 164.790  120.060  154.726        41.00
 191.212   38.066  110.590        41.00
 180.892  114.908  195.677        41.00
 224.790  141.586   75.377        41.00
 354.192   90.510  150.466        41.00
 196.966   52.265   72.158        41.00
 163.649  129.499  149.597        41.00
 176.349   27.847   97.634        41.00
 258.955   70.455   30.367        41.00
 293.825   72.336  212.764        41.00
 193.257   12.444   68.940        41.00
 198.770  141.883   26.424        41.00
  85.232   79.153    9.219        41.00
  30.236  154.202   13.746        41.00
  94.216   62.765  333.500        41.00
 121.354  107.547  257.983        40.00
 183.962   71.260  266.971        40.00
 119.458   89.721  329.972        40.00
 355.566   52.458   25.920        40.00
 289.637  108.834   96.625        40.00
 359.843   95.684  161.000        40.00
 104.234   95.256  262.362        40.00
 189.918  130.943   28.822        40.00
 300.472  150.969  328.040        40.00
 356.015   81.730   37.740        40.00
 171.688  148.112  154.337        40.00
 185.016  138.660   16.480        40.00
 260.143   89.118   67.431        40.00
 179.028  134.691   19.549        40.00
   1.117   92.058  198.818        40.00
  12.536   48.901  174.702        40.00
   0.246  143.541    4.383        40.00
 173.988   89.787  199.141        40.00
 288.935  106.075   55.998        40.00
 212.185   56.973   77.504        40.00
 205.513  131.986   74.795        40.00
 175.084   84.631  190.392        39.00
 346.308  117.190   22.820        39.00
 178.127  145.372  177.073        39.00
 170.986   27.497   83.936        39.00
 270.790   80.732   40.605        39.00
 280.399   87.173  128.377        39.00
 267.456   86.990   93.721        39.00
 202.650   27.389  289.764        39.00
 169.393   76.847  267.188        39.00
 182.682   55.987  282.099        39.00
 352.128   52.690  144.155        38.00
 254.690  100.301   82.145        38.00
 163.522  130.445  166.252        38.00
 350.505  147.964  180.376        38.00
 357.230   69.575  190.128        38.00
 245.023  106.320  110.497        38.00
 333.373  135.910  155.264        38.00
 167.615  149.374  155.190        38.00
 176.128   41.321  105.469        38.00
 174.779  106.492   52.315        38.00
  71.103   76.445    6.770        38.00
 194.311   88.367  270.023        38.00
 354.200   54.513  165.480        38.00
  68.965   82.490  340.241        38.00
 192.087   71.850  114.552        38.00
  80.904   69.859  184.458        38.00
 197.946   39.888  283.374        38.00
 193.843  148.191  175.276        38.00
  96.081   91.025    4.594        38.00
  11.503  140.476  201.350        38.00
 136.145  124.603  317.626        38.00
 170.132   42.739   41.943        37.63
 164.582  137.571  134.909        37.00
 111.691  144.990   60.379        37.00
 266.034   97.017   85.651        37.00
 182.375  105.366  133.639        37.00
 170.087   93.982  220.103        37.00
 312.645    2.998  167.023        37.00
 172.965  124.672    8.795        37.00
  73.964   92.532   14.549        37.00
 278.815   73.928   28.556        37.00
 111.696   77.298  331.115        37.00
   5.981   41.125  181.553        37.00
 200.589   41.554   80.311        37.00
 291.621   90.756   37.315        37.00
 161.211  131.300  155.794        37.00
 267.302  100.058  100.082        37.00
 166.582  146.720   17.309        36.00
 163.929  105.548   36.856        36.00
 214.634   55.315   73.105        36.00
 270.859  116.391   83.839        36.00
 180.299  145.250  160.200        36.00
 275.033  100.715   34.139        36.00
 181.132   79.715   99.579        36.00
 191.985  144.155  194.065        36.00
 143.146   36.911  311.246        36.00
 265.208   81.707   90.095        36.00
  95.576  149.007   23.267        36.00
 108.908   82.813  143.615        35.00
  70.971   59.311   33.545        35.00
 335.848   85.966  156.094        35.00
  84.494   95.493   32.722        35.00
 329.283   27.176  336.962        35.00
 349.703   47.837  212.213        35.00
 197.058  131.653   59.542        35.00
  98.736   86.456  139.424        35.00
 296.284   73.242  355.698        35.00
  68.402   35.530    1.190        35.00
  29.912  154.879   29.479        35.00
  80.052   89.195  333.800        35.00
  25.882  130.333    1.704        35.00
 192.186   83.351  252.609        35.00
  44.494  142.753  211.480        35.00
 259.571   73.272   61.032        35.00
 178.966  159.002  177.364        35.00
  72.670   79.670  214.172        35.00
  35.492  140.276  234.611        34.50
 290.720   86.209  198.456        34.00
 105.711   97.807  140.457        34.00
  10.729  169.153  219.003        34.00
 236.778  148.378  100.238        34.00
 256.491  155.128  248.112        34.00
 264.114   97.165   84.799        34.00
  51.586  155.899  249.872        34.00
 195.559  146.645  101.898        34.00
 261.676  103.559   82.299        34.00
  14.746  129.315  190.210        34.00
  31.146  140.901  159.124        34.00
 351.454  132.246    7.725        34.00
 184.229   54.230   36.132        34.00
 326.547  146.906  337.974        34.00
  19.350  136.802  189.379        34.00
 259.574  155.842  270.506        33.00
   3.950   37.795  155.144        33.00
 276.527   51.940   22.263        33.00
   3.735   48.361  295.565        33.00
 262.942   78.379   44.546        33.00
 158.182  138.973  147.345        33.00
  55.054   52.521  199.443        33.00
 355.552   32.103  161.035        33.00
  84.070   93.207  321.451        33.00
 202.927  146.321  210.527        33.00
  89.998   78.153  134.942        33.00
 190.234  137.415   31.685        33.00
  42.073  137.080    0.960        33.00
 185.487   36.699   81.684        33.00
 349.818   90.842  181.677        33.00
 321.582   43.810  100.832        33.00
  17.766   26.639   76.627        32.00
 229.705   67.065  279.431        32.00
  88.250   59.244  349.227        32.00
 176.971  108.947   29.295        32.00
 177.628   46.659   72.581        32.00
 108.678   68.487  346.566        32.00
 256.317   91.784   83.046        32.00
 335.801  141.747  338.772        32.00
 159.940   48.890   96.859        32.00
 125.518   69.834  140.553        32.00
 237.502  167.018   92.656        32.00
 260.888  102.116   70.848        32.00
 119.421   95.438  321.233        32.00
 297.959   89.623   46.209        32.00
 345.043   90.722  162.791        32.00
   6.767  111.223  200.060        32.00
   6.381  100.354  193.511        31.00
 302.726   74.579  337.443        31.00
  78.226   91.103  293.070        31.00
 199.758   43.454   82.722        31.00
 268.340   76.161   21.834        31.00
 188.337  147.852  187.932        31.00
 116.441  146.738   70.478        31.00
 188.024   82.317   91.350        31.00
 276.506  104.932   32.038        31.00
 358.685  107.525  165.740        31.00
 121.237  112.075   89.968        31.00
 108.153   67.242  325.216        31.00
 183.959  135.372   14.189        31.00
 332.760  133.421  347.271        31.00
 333.595   34.730  230.089        30.00
 100.343   76.479  344.007        30.00
  36.573  129.682  217.762        30.00
 217.761   13.957  352.800        30.00
  87.582   84.951  355.595        30.00
 278.738   91.948   40.476        30.00
  28.382  107.269  170.372        30.00
 298.531   26.449  299.287        30.00
  13.188   41.317  231.309        30.00
  88.502  114.612  285.887        30.00
 115.211   85.860  139.832        30.00
 177.879   45.535   97.303        29.75
 249.976  109.727   39.904        29.00
 166.121   30.958  100.939        29.00
 172.347  132.365   14.247        29.00
 191.502   75.261  139.095        29.00
 269.166   82.030   44.050        29.00
 110.563   84.399  347.934        29.00
 142.277   44.079  120.424        29.00
  13.993   44.050   78.607        29.00
 262.525   84.490   77.291        29.00
  64.520   27.102  182.037        29.00
 104.974   89.574   71.995        29.00
   4.009   97.047  160.410        28.25
  19.850  129.086  203.772        28.00
   6.574   44.095  176.807        28.00
  48.370    5.497  211.725        28.00
 170.814  144.717   20.316        28.00
 180.249  116.500  198.456        28.00
 174.914   94.574  159.165        28.00
 261.297   77.258   19.214        28.00
 169.108   36.015  134.435        28.00
 183.693  129.815   20.023        28.00
 179.790  103.310   43.082        28.00
  26.987   35.604  126.848        28.00
 280.022   90.435   96.439        28.00
 265.006   84.316  316.769        28.00
 189.626   62.262   96.766        28.00
 177.825  149.169  148.480        28.00
 350.574   67.771  158.632        28.00
 284.389   86.720   92.104        28.00
 114.179   85.303  335.416        28.00
 248.323   94.938   97.500        28.00
  85.575   78.580   17.020        28.00
  95.066   97.673  318.688        27.00
 349.411   80.248  139.662        27.00
  44.440  112.623  211.091        27.00
  13.886   48.703   84.956        27.00
 243.352  112.950   92.350        27.00
 195.659  115.847   24.015        27.00
  82.933   18.171   65.584        27.00
 236.826   59.006   71.714        27.00
   7.287  149.925  169.716        27.00
 282.211   76.516   23.900        27.00
 268.937   97.390   99.039        27.00
 331.022   32.877   75.543        27.00
 202.445   44.291  283.983        27.00
 244.555   85.117   47.584        27.00
   5.903   74.694  188.704        27.00
 176.076  109.770  266.511        27.00
 356.890   82.042  151.500        27.00
   8.860  126.709  177.555        27.00
 275.487   91.814  165.279        27.00
 171.403  104.409  154.199        26.00
 356.426   53.578  187.612        26.00
 159.577  134.964  166.813        26.00
  99.488  117.446  250.175        26.00
 288.369   85.249  335.195        26.00
 336.768  135.367  320.336        26.00
 329.713   62.867  206.599        26.00
 352.227    8.974  227.427        26.00
  72.241  106.417  214.970        26.00
  90.672  111.470   26.544        26.00
  83.227   57.298   15.576        26.00
 359.847   83.332  186.088        26.00
 325.809  161.601  130.719        26.00
 208.309   38.332  279.049        26.00
 192.657  125.109   45.882        26.00
  88.386   32.592   30.930        25.00
 207.850  140.716  181.752        25.00
 132.471  150.237  115.290        25.00
 174.630   72.695  105.496        25.00
 337.495   50.776  214.791        25.00
 273.268  103.613   46.598        25.00
 104.368   70.771  355.977        25.00
 177.070  138.811  162.977        25.00
 277.113   49.603   13.583        25.00
  74.342   46.314  230.534        25.00
  90.669   71.153  351.666        25.00
 340.783  157.415  145.912        25.00
  28.399   32.494  141.427        25.00
 107.121   82.898  327.290        25.00
 282.208   70.329   49.409        25.00
 179.645   42.038  111.698        25.00
 333.043  152.926  168.659        25.00
 203.120   46.211  274.258        25.00
 264.050   83.993   83.629        25.00
   5.947   59.295  171.783        25.00
 355.138  148.607    4.861        25.00
 162.690   58.898  295.121        25.00
 358.220   32.565  301.562        25.00
 357.993   93.395  204.401        24.00
 164.615   44.798  144.333        24.00
 274.449   87.024   99.495        24.00
 141.614  139.516  109.712        24.00
  37.359   49.687   51.760        24.00
 344.239   25.823  230.273        24.00
  64.718  176.358   72.035        24.00
  95.934  100.690  212.310        24.00
  86.525   90.931  274.332        24.00
  78.499   91.988  279.185        24.00
  68.171   70.196   14.427        24.00
 265.241   95.038   41.868        24.00
 182.820  152.825  158.098        24.00
 178.127   21.711  295.863        24.00
  26.429   55.177  220.772        24.00
 239.892   77.408   65.795        23.37
 203.683  153.590  186.553        23.00
 186.446   41.183   81.226        23.00
  47.015  112.446  225.440        23.00
 119.584   71.285  171.387        23.00
  76.035   94.203  337.947        23.00
 120.748   92.913  106.114        23.00
 250.056   82.871   75.697        23.00
 166.330  108.504   35.856        23.00
 213.597   31.323  284.871        23.00
 273.788   90.937   28.568        23.00
  73.478   82.755   25.254        23.00
 253.918  104.232   99.902        23.00
  88.146   75.479  330.770        23.00
 182.375   57.257   86.384        23.00
 221.346   88.356   52.239        23.00
  99.127   95.244  127.882        23.00
  25.276  129.215   66.863        22.00
  16.170   32.013  187.112        22.00
 276.627   91.014   48.083        22.00
 345.983   65.889   40.827        22.00
 187.381   51.296   71.703        22.00
   6.918   58.937  357.633        22.00
 189.084  140.593   91.281        22.00
 168.426   56.446   97.669        22.00
 274.092   79.031   70.440        22.00
 226.452   39.251  259.998        22.00
 119.642   97.160  276.754        22.00
 274.078   79.667   18.253        22.00
 355.665  138.283  174.714        22.00
 303.353  122.826  326.716        22.00
 332.559   34.854  199.733        22.00
 356.725   98.790   35.179        22.00
 273.202   93.477   89.400        22.00
  26.069   50.046  199.042        21.75
 266.706   60.352  313.274        21.00
 177.718  100.840  256.522        21.00
 196.365   47.205   87.799        21.00
  75.401   91.587   33.538        21.00
 278.418  103.776   85.443        21.00
 259.011  101.512   64.155        21.00
 287.079   83.344  164.241        20.00
 111.764   93.443  170.141        20.00
 250.546   65.266  336.703        20.00
 274.385  134.890   82.750        20.00
 143.357  134.097  319.580        20.00
 348.089   95.095  155.817        20.00
 212.752  146.390   54.270        20.00
 186.696  142.962  191.693        20.00
 190.068   51.003   78.926        20.00
 105.524   90.601  334.571        20.00
 280.956   67.250  359.588        20.00
 100.430   82.440  336.667        20.00
  58.211   83.048  215.981        20.00
 347.933   97.434  172.706        19.42
 341.011  138.229    4.951        19.25
 182.586   41.640   95.808        19.00
 251.054  116.836   93.092        19.00
   3.120   22.023  260.129        19.00
  89.883   80.464  346.436        19.00
   5.639   99.040  212.612        19.00
 112.076   86.223  169.549        19.00
  14.808   44.388  215.642        19.00
 192.968  127.004  179.899        19.00
 358.293   73.406  167.513        19.00
 205.980   55.706  140.785        19.00
 279.409   77.997   55.218        19.00
 166.207  153.464  172.219        19.00
  28.593   90.805  202.908        19.00
 101.723   88.101   79.621        19.00
 346.108  133.114  188.393        19.00
   5.021  132.393  167.856        18.25
  27.899  140.238  204.602        18.00
  69.422   72.915   34.674        18.00
  96.437   94.651  138.962        18.00
 175.393   72.920  222.472        18.00
 298.217   85.968  160.072        18.00
 101.747   80.055    0.345        18.00
 188.043   91.964  267.124        18.00
 163.170   64.666  284.614        18.00
 109.434   35.873  153.853        18.00
 248.770   71.968   61.185        18.00
 162.849  154.842  170.512        18.00
  71.390   88.265  213.428        18.00
 265.464   89.034   71.589        18.00
  86.363   94.352  292.392        18.00
 183.081   60.281  102.991        18.00
 185.076  158.114  161.603        18.00
 163.086  135.472  141.838        18.00
 359.478   46.496   16.398        17.00
 177.037   69.494   68.030        17.00
 180.915   99.422  144.049        17.00
  92.874   81.737   15.304        17.00
   8.237   47.914  193.635        17.00
 192.570   95.068  222.910        17.00
 288.652  108.287   97.715        17.00
 272.783  100.709  105.375        17.00
 358.096   95.340  162.684        17.00
 212.952  145.706   75.549        17.00
 183.050   51.035  113.852        17.00
 352.635  133.057  152.082        17.00
 262.695   85.224   76.107        17.00
 221.130  100.092   57.389        17.00
  58.351  145.807    3.533        17.00
  67.153  111.029  279.444        17.00
 343.843  118.561  155.668        16.00
   2.500  130.183  170.196        16.00
 296.795   80.694   53.145        16.00
   9.929  130.024   26.732        16.00
  84.358  104.714   28.344        16.00
 353.567   63.094  203.152        16.00
 170.525   43.961  114.455        16.00
 248.707   84.769   69.560        16.00
 165.015  103.524  162.456        16.00
 184.147   86.924  216.318        16.00
  39.998  166.360   38.044        16.00
 347.438   34.357  201.883        16.00
 286.085   67.661  335.206        16.00
 203.122  124.905  156.358        16.00
 257.391   67.031   62.597        16.00
 292.406  148.335  298.879        16.00
 175.015  113.766   23.117        16.00
  86.444   85.208  151.210        16.00
 209.674   38.086   77.403        16.00
  48.806  165.127  242.546        16.00
 202.185  139.118  197.280        16.00
  75.865   94.274  338.181        15.00
 326.867  138.247  140.665        15.00
  18.530  111.812   33.836        15.00
 196.090   78.940  266.090        15.00
 268.622   83.730   65.139        15.00
 359.919   94.022  157.320        15.00
  44.451  145.007  248.764        15.00
 342.487   64.877  212.776        15.00
 273.810   92.481   60.255        15.00
 157.435   52.785  120.341        15.00
 126.610   74.727  332.774        15.00
 201.824   60.509   90.583        15.00
  62.133   33.976   48.968        15.00
 356.508   59.164  131.190        15.00
 348.053   27.483  219.703        15.00
 209.499   30.180  264.726        15.00
 102.593   83.526  335.652        15.00
  69.623   75.214    7.131        15.00
 144.850   36.918  120.910        15.00
 120.661  103.062  267.001        15.00
 349.130  139.603  341.208        15.00
 199.456  115.523   92.820        15.00
   7.847   62.205  191.524        15.00
 102.872   69.755  136.042        14.00
 184.282   99.042   35.662        14.00
 278.176  112.756   82.537        14.00
 359.807  101.876   27.744        14.00
 203.011   41.950   92.458        14.00
  79.059   92.501   32.442        14.00
 250.605  105.058  112.800        14.00
 181.641  164.995  147.187        14.00
  73.162  113.667  158.902        14.00
 274.054   50.692   32.500        14.00
 184.793   53.388   86.560        14.00
  71.113   88.573  273.168        14.00
 239.465   80.799   75.259        14.00
  91.234   47.278  176.701        14.00
  29.243   31.842  109.012        14.00
  87.390   90.394  327.553        14.00
 172.851  152.731  153.137        14.00
 280.994   70.032   50.153        14.00
  14.297   67.439  187.455        14.00
  64.095   82.662   11.065        14.00
 358.292   60.803  131.939        13.00
 205.895  115.798   68.687        13.00
  88.414  145.794   77.383        13.00
 164.232  127.534  141.809        13.00
 264.914   87.869   55.580        13.00
 115.229   79.265  343.387        13.00
 101.026   95.718  332.766        13.00
 253.014   89.920   91.353        13.00
 108.403  105.767  345.809        13.00
   8.508  105.493  201.717        13.00
 191.321  152.469  164.225        13.00
 248.453  110.241   75.098        13.00
 128.285  106.136  281.586        13.00
 128.912  170.834  105.556        13.00
 272.969   88.419   89.602        13.00
 275.491   96.226   48.637        13.00
 286.369   79.561  206.809        13.00
   9.688   57.194  233.858        13.00
 195.855  104.850  211.846        12.00
  98.271   74.627  352.723        12.00
 154.366   45.939   98.390        12.00
 249.517   95.644   77.674        12.00
 107.430  100.288   93.479        12.00
  18.416  126.465   21.616        12.00
 341.373   51.330  176.263        12.00
  69.208   81.344    9.818        12.00
 124.739  113.487   35.315        12.00
 104.138   92.294  340.966        12.00
  73.712  103.325  265.620        12.00
 165.179  143.578  142.805        12.00
 100.539   78.468  338.114        12.00
 187.277  118.244   32.644        12.00
  70.720   21.323   50.691        12.00
 300.350   77.281  333.010        12.00
 298.222   64.669  349.922        12.00
 345.291   33.277  265.780        12.00
 300.186   75.690  325.645        12.00
  19.018   51.252  196.409        12.00
 253.253   81.760   25.748        12.00
 203.690   38.233   83.197        12.00
 200.389   64.885  273.510        12.00
 270.519  100.844   92.001        12.00
 282.450   67.043    2.985        12.00
  28.906  150.493  221.459        12.00
 120.308   89.367  338.526        12.00
   5.389  164.155  337.369        11.00
 280.284  162.927  258.463        11.00
 105.630   72.116  342.601        11.00
  17.460   45.579  220.342        11.00
 299.011   89.423  327.814        11.00
 159.916  153.131  143.825        11.00
  87.281   97.129  209.054        11.00
 250.562   62.553    4.656        11.00
  31.218   46.715   88.038        11.00
 262.741   79.026   25.992        11.00
 274.068  107.702  137.617        11.00
 165.790  108.649   33.310        11.00
  82.383   84.785   27.399        11.00
 117.017  103.354  260.345        11.00
 107.082   91.564  136.531        11.00
 119.777   69.183  119.007        11.00
   3.572   84.767  170.208        11.00
 266.470   81.725   37.613        11.00
 237.652  114.084   80.367        11.00
  77.650   72.676  354.390        11.00
  85.489   99.790  219.405        11.00
 254.446   83.180   74.198        11.00
  15.123   80.705  187.190        11.00
   9.440   85.292  164.771        11.00
 128.627  115.181   11.344        11.00
 317.071   62.362  140.590        11.00
  96.001   89.125  327.501        11.00
  80.356   66.025   15.716        11.00
 270.956   98.895   37.270        11.00
 305.545  125.044  334.186        10.00
 288.939  108.464   97.597        10.00
   1.642   72.335  185.075        10.00
 290.331   63.445  141.027        10.00
 194.681  138.731  338.688        10.00
 278.502   94.700   21.664        10.00
 357.039   46.110  208.701        10.00
  57.787  116.936   20.589        10.00
 341.760  147.149  186.537        10.00
 117.895   75.903  330.851        10.00
 282.851  171.079  264.530        10.00
 345.372  121.895  171.636        10.00
 279.785   72.626   27.960        10.00
   0.485   46.103  156.876        10.00
 100.106   91.860   72.350        10.00
 153.292   26.740  115.525        10.00
 328.081   55.023  198.289        10.00
 169.733  137.929  149.715        10.00
  33.313  142.379  234.973        10.00
  31.881   56.877   39.281        10.00
 301.429   76.188   32.693        10.00
 304.873   68.205  325.762        10.00
 161.145   60.737  101.042        10.00
 104.203   72.859  335.488        10.00
 104.052   88.962  325.339        10.00
 183.145  133.690  170.166        10.00
  55.679   65.481  220.464        10.00
 304.220  118.463  136.876        10.00
 200.524   37.445   86.886        10.00
 212.903   56.651   76.254        10.00
 277.989   97.605   20.660        10.00
  58.789   97.917  218.531        10.00
  87.148   89.158  141.835         9.00
 341.801   54.817  145.335         9.00
 111.623   77.356  331.187         9.00
 288.193  100.039  326.676         9.00
 354.655  155.110  354.430         9.00
 267.023  100.084   99.988         9.00
 339.530   34.701   72.672         9.00
  79.337  102.297  358.646         9.00
 299.669  108.608  128.296         9.00
 176.831  146.414  182.232         9.00
 120.738   25.902  329.581         9.00
 194.706   49.296   95.458         9.00
 288.064   86.857  163.322         9.00
 271.664   68.439   31.103         9.00
 171.432  116.779  139.228         9.00
 174.124   41.066  113.203         9.00
 114.321   95.188  323.728         9.00
  91.053   85.178  112.243         9.00
 266.099   67.208   31.837         9.00
 286.213   89.066   25.189         9.00
 332.530  134.958  341.228         9.00
 244.915  105.622  110.459         9.00
 180.716  146.047  162.498         9.00
  87.873   78.384    1.724         9.00
 141.799   29.189  329.191         9.00
 271.556   86.001   36.897         9.00
 275.384  140.440  282.497         9.00
   1.880  147.565  341.711         9.00
  79.712   65.783   15.964         9.00
 279.437  174.231  287.029         8.00
   6.317   53.962  213.391         8.00
 322.960   27.791  284.436         8.00
  92.857   91.281  141.341         8.00
 303.354   69.892   28.846         8.00
  53.897   96.753  263.104         8.00
 346.549  139.438  352.098         8.00
  57.173   86.205  237.331         8.00
 174.366   64.059  278.174         8.00
  69.578   81.013    9.561         8.00
 180.341   38.508  103.898         8.00
  50.321   37.500  222.374         8.00
 353.958   93.340  160.136         8.00
 111.332   94.826  101.687         8.00
 157.022  126.014  353.139         8.00
 109.179  101.932  342.931         8.00
  40.866   71.947   26.655         8.00
  12.318   67.335  208.988         8.00
  83.770   82.744  328.138         8.00
 167.566   86.854  283.002         8.00
  81.044   71.255  352.307         8.00
  21.297  148.213  205.620         8.00
 135.848  147.466  103.599         8.00
  99.576  109.640  333.829         8.00
 275.771  136.208  204.953         8.00
 113.745   80.962  134.623         8.00
   7.463  129.306  342.228         8.00
 338.274   28.669  180.718         8.00
  17.814  138.702   21.260         8.00
 172.844   34.451  133.356         8.00
 351.551  149.591  151.657         8.00
 187.216  148.571  200.101         8.00
  84.135   90.887  322.298         7.00
 113.873  149.946   79.944         7.00
 100.934  106.959  326.233         7.00
  89.648   81.947   11.883         7.00
 107.619  100.827   93.381         7.00
 178.774  154.247  196.175         7.00
 126.020   75.394  155.349         7.00
 261.722  158.969  244.354         7.00
 165.748  150.276  125.785         7.00
 353.715   35.647  151.494         7.00
 193.220  151.135  193.122         7.00
 180.402   57.487   64.522         7.00
 359.325  122.071  175.141         7.00
 269.284  100.634   83.421         7.00
 310.024  147.114  180.077         7.00
 358.562  121.099   19.946         7.00
 111.555   77.089  331.212         7.00
  67.721  155.196   10.346         7.00
 267.854   94.700   33.953         7.00
 126.881   56.838  327.864         7.00
 163.027  128.674  149.395         7.00
 150.589  153.323  135.617         7.00
 230.545    9.665   44.808         7.00
  80.559   98.571  329.083         7.00
 333.533   47.340  229.041         7.00
 113.532  109.330  334.908         7.00
  89.763   65.718  336.802         7.00
 309.441   64.607  348.232         7.00
  80.031   99.050   23.911         7.00
 284.547  162.563  254.676         7.00
 271.418  131.164  119.871         7.00
  81.089   73.469  337.936         7.00
 348.316   79.276  173.971         7.00
  90.058   76.475   32.074         6.00
 183.565   93.352  253.546         6.00
 237.183   95.857   83.968         6.00
  99.460   86.791  342.243         6.00
  12.774   29.714  219.337         6.00
 284.291   77.121   39.070         6.00
 101.736   92.134  323.083         6.00
 260.803  110.707   77.260         6.00
 132.896   84.669  330.244         6.00
  73.187  132.495   13.669         6.00
   4.086  133.404  161.424         6.00
 236.633  114.304   80.100         6.00
   0.751   56.151  176.530         6.00
 270.637   77.303   36.218         6.00
 358.194   39.827  135.351         6.00
 246.299   60.568   21.428         6.00
 284.782  111.094  303.706         6.00
  81.397  107.867   17.581         6.00
  46.361  149.727  252.451         6.00
  86.379  102.893   11.904         6.00
 154.918  154.000  157.262         6.00
 264.325   85.043   51.866         6.00
  92.441   93.981  349.609         6.00
 171.951   29.556  296.551         6.00
 253.887   83.636   73.867         6.00
 260.977  171.184  246.823         6.00
 272.397   95.408   90.552         6.00
 289.863   87.507   48.813         6.00
 112.162  107.796  324.271         6.00
  85.325   83.098  207.794         6.00
 289.626   87.571   48.914         6.00
 139.934  110.518  278.578         6.00
 290.153  105.091   78.185         6.00
 152.706  136.822  151.233         6.00
 236.418   80.468   94.110         6.00
  97.976   84.590  338.989         6.00
 250.700   93.578   87.785         6.00
 135.686   41.604  315.566         6.00
  66.127  106.877  271.864         6.00
 305.305  141.412  132.131         6.00
 217.797   85.913  212.528         5.50
  58.140   83.181  216.633         5.00
 229.366  167.068  225.803         5.00
  98.993   74.067    3.490         5.00
  17.435  149.920   14.761         5.00
 306.701  123.250  331.745         5.00
 273.156  105.034   78.290         5.00
 312.769   57.195  323.694         5.00
 163.725   44.084  146.820         5.00
 272.590   66.801    7.806         5.00
  91.131   79.243  175.511         5.00
 187.863   41.421   73.028         5.00
  57.761   86.448  236.689         5.00
   4.606   77.571  162.688         5.00
 122.242   54.807  328.705         5.00
 241.380   56.381   29.319         5.00
  82.815   99.597   24.151         5.00
  87.138   73.879  139.925         5.00
 246.166   58.918   13.038         5.00
 307.775   85.681  139.560         5.00
 244.192   97.470   49.196         5.00
  52.689   73.498  247.825         5.00
 267.744  114.044  101.928         5.00
 179.987   57.476  123.517         5.00
 221.687   45.844   46.093         5.00
 268.911   82.420  130.691         5.00
  92.473   93.601  349.208         5.00
 285.850   87.689   43.739         5.00
 196.728   64.565   89.570         5.00
 286.011  104.290   97.678         5.00
 215.692  150.556   55.451         5.00
 120.709   71.641  152.265         5.00
 282.641   78.864   36.488         5.00
 123.988  106.222  262.319         5.00
 237.709   62.808   39.395         5.00
 102.602   70.263  136.131         5.00
 190.674   83.317   40.365         5.00
 185.756  113.512  137.552         5.00
 215.768  152.090   58.939         5.00
  88.404   91.447  291.186         5.00
 291.973   42.196  321.398         5.00
  97.611   76.857  330.542         5.00
 158.818  129.245   87.049         5.00
  77.201   91.643  274.593         5.00
 290.735   66.016  326.450         5.00
 285.045   87.045  188.028         5.00
 301.670   90.991  163.872         5.00
  58.810   82.459  211.531         5.00
 302.836  125.617  331.643         5.00
   7.882  130.409  173.718         5.00
 161.697  146.752  123.595         5.00
 108.429   90.684   40.797         5.00
 259.481   89.760   86.557         4.00
  71.164   67.938    3.869         4.00
 274.546   86.148   40.772         4.00
 103.246   73.256  335.883         4.00
 268.707   78.632   46.777         4.00
  62.037   64.613  207.786         4.00
 275.442   95.912   48.383         4.00
  69.540   69.615  224.899         4.00
 276.205   77.921   35.370         4.00
 355.440   52.057  206.429         4.00
 287.814   73.728  319.797         4.00
  90.689   81.825   16.736         4.00
 154.352  145.274   73.560         4.00
 290.402   85.544  334.887         4.00
  89.414  100.460  209.942         4.00
 255.121   63.724   22.715         4.00
 186.352  171.926  163.866         4.00
 221.126   66.376   68.513         4.00
 229.151   66.654  279.741         4.00
 127.070  119.234   25.287         4.00
 137.079  108.646   77.291         4.00
 276.997   75.510  348.649         4.00
  58.289   83.470  216.132         4.00
 114.338   78.532  141.010         4.00
 262.142   79.451   80.384         4.00
 265.601   76.363   43.797         4.00
 110.874   84.226   97.854         4.00
  97.337  105.955   61.162         4.00
  83.219   66.168  354.414         4.00
 225.559   65.566   85.990         4.00
   8.978  108.509  192.337         4.00
  69.970   80.572   10.080         4.00
 110.988   93.227  106.874         4.00
 222.980  158.294   71.890         4.00
 142.486   88.689   80.839         4.00
 287.056   96.965  212.748         4.00
 328.538   96.629   81.043         4.00
 172.417  130.610   13.561         4.00
 270.806   77.548   36.094         4.00
 246.062  116.846   85.465         4.00
 202.196   49.695   72.087         4.00
  92.516   85.787  328.882         4.00
 263.099  113.524  126.109         4.00
  69.956   84.014  271.087         4.00
 298.282   58.260  319.041         4.00
 182.855  146.200  160.546         4.00
 239.684  119.956  120.633         4.00
  78.417  106.731  299.176         4.00
 356.814  133.354  174.652         4.00
  52.397   96.808   10.471         4.00
 174.270   91.378  266.249         4.00
 270.896   86.796   30.974         4.00
 127.139  119.626   25.356         4.00
 274.004   82.815  148.338         4.00
 263.479   75.057   32.094         4.00
  89.250   66.700  337.391         4.00
 298.203   76.698   23.553         4.00
 181.697   56.426  281.899         4.00
  95.930   95.784  341.121         4.00
 273.938   87.588   40.940         4.00
 107.203   90.306  346.851         4.00
 184.289   30.567  116.281         4.00
   5.034   83.883  197.872         4.00
 276.546   82.652  167.720         4.00
 129.906   99.672  267.778         4.00
   3.976   90.587  191.995         4.00
 222.713  127.754   51.321         4.00
 183.484  135.313  148.432         4.00
 316.988   49.375  137.534         4.00
  23.317  124.824    0.920         4.00
  62.830   58.692  212.049         4.00
 214.097  149.298  353.301         4.00
 330.492   56.834   86.929         4.00
  97.205  123.419  312.113         4.00
 151.155  123.320  273.324         4.00
 294.903  130.523  188.267         4.00
 192.990   83.020  112.742         4.00
 168.732  133.605  138.231         4.00
 177.819   99.484   73.539         4.00
  75.725   35.524   46.444         4.00
 143.310  107.427   79.706         4.00
 102.554   73.369  346.969         4.00
 291.994  124.594  120.424         4.00
 307.303  119.854   55.294         4.00
 358.753   79.716  149.975         4.00
 239.453  119.778  120.333         4.00
 101.971   96.878  280.375         4.00
 101.022   76.503  343.896         4.00
 109.615   93.646  128.974         4.00
 299.138   77.214  334.179         4.00
  97.983   91.669  107.775         4.00
 182.472  118.722   87.785         4.00
 354.284   22.574  267.022         4.00
  97.634   95.668  159.548         4.00
  61.522  123.351   30.470         4.00
 272.927   75.252   30.332         4.00
  99.632  111.655  310.195         4.00
  10.163   87.623  201.832         4.00
 271.695   89.207   85.796         4.00
  92.724   75.245  340.737         4.00
 180.296   57.679  122.627         4.00
 357.625   93.368  204.079         4.00
 290.117   88.019   47.930         4.00
  90.884   97.787  131.077         4.00
 105.048  111.412  324.037         4.00
  93.771   96.988  108.496         4.00
  42.096   21.990  218.582         4.00
 265.806   76.959   43.265         4.00
 274.120   91.183   42.370         4.00
 239.934   76.975   34.819         4.00
 116.499   71.882  145.851         4.00
 265.210   76.950   43.649         3.00
 268.646   82.526  184.111         3.00
  79.659   47.643   15.906         3.00
  84.197   77.735  346.287         3.00
 274.454   40.499   21.857         3.00
 252.090  101.620   92.056         3.00
 262.224   93.743   66.924         3.00
 113.969  104.358  339.820         3.00
 278.770   88.803  132.019         3.00
 341.362  156.682  185.715         3.00
 293.191   64.886   30.608         3.00
  79.642   66.027   15.760         3.00
 103.502   89.290  341.734         3.00
  93.501   98.204  319.053         3.00
 315.759   71.967   61.515         3.00
 147.878   65.572  106.760         3.00
 257.262  114.109   79.502         3.00
 184.433   75.768   26.750         3.00
 251.461   80.411  172.594         3.00
 254.406   81.289   64.548         3.00
  80.025   79.586  274.817         3.00
 113.937  112.641  269.424         3.00
 276.424   91.520    6.206         3.00
 180.337   58.720  123.252         3.00
   3.233   52.490  242.472         3.00
 352.067  130.746  181.601         3.00
 275.211   91.237   44.207         3.00
 132.953   88.821   24.171         3.00
   5.149  103.058  215.206         3.00
 322.100   52.804  321.688         3.00
 278.093   51.004   20.126         3.00
 130.473  100.713  268.153         3.00
 201.902  111.329   79.037         3.00
 103.589   92.016  328.453         3.00
 261.246   83.877   81.488         3.00
 143.902   57.696  316.941         3.00
 104.718   56.467  331.163         3.00
  28.000  146.790  353.867         3.00
 354.119   29.467  150.702         3.00
 154.975   23.187  328.109         3.00
 268.870  113.975  128.560         3.00
 185.221   29.965  295.429         3.00
 255.322   78.225  208.687         3.00
 172.567   94.158  342.326         3.00
  77.382   66.676  274.479         3.00
  91.591  109.834  357.728         3.00
  63.826  113.800    1.209         3.00
 271.501  108.095   78.747         3.00
 114.182  119.963  336.402         3.00
 250.839   92.137   86.449         3.00
 239.307  120.016   60.294         3.00
 198.175   36.871   93.288         3.00
  73.236   93.575   50.720         3.00
 251.460  103.704   90.351         3.00
  88.889  105.759    7.781         3.00
 265.168   76.762   43.030         3.00
 113.128   91.687  101.731         3.00
 180.033   57.858  122.971         3.00
 278.626   67.856   41.010         3.00
 261.127  110.898   76.844         3.00
 283.309   86.001   49.684         3.00
 185.599   30.401   55.961         3.00
   3.980  123.396  195.710         3.00
 307.496  119.467  355.581         3.00
 115.124   81.688  339.498         3.00
 272.148  132.250  123.832         3.00
 111.621  111.016  346.532         3.00
  82.531  101.208  220.134         3.00
 243.640  112.420   91.836         3.00
 240.219   64.255   29.957         3.00
 303.082   67.565  109.601         3.00
 118.053   91.951  106.456         3.00
 312.623   65.593   63.272         3.00
 265.856   82.592   47.738         3.00
 187.134  116.331   64.713         3.00
 222.796  128.192   51.571         3.00
 185.843  166.775  317.267         3.00
  88.357   95.138   31.850         3.00
  79.584   95.364   23.788         3.00
  57.340   83.185  216.512         3.00
  92.847   47.525  355.704         3.00
 124.725  118.900  274.492         3.00
 106.472  101.738  133.520         3.00
 267.840   86.089   16.163         3.00
  85.839   91.132   35.968         3.00
  92.719   75.156  341.413         3.00
  82.355  148.813  354.052         3.00
 291.315   63.101  151.188         3.00
  79.892   62.567  207.900         3.00
 349.423   87.714   36.296         3.00
  90.790   63.331  247.882         3.00
 303.757   81.368  259.102         3.00
  57.292   86.659  256.945         3.00
 274.855   94.237  162.827         3.00
 301.917   70.580  258.821         3.00
 168.630  100.149   66.663         3.00
 278.955   72.408  234.589         3.00
 183.537  142.530   50.273         3.00
 110.668  103.283  293.668         3.00
  98.126  123.454   12.456         3.00
  72.743   78.686  208.359         3.00
 311.587   65.831   98.053         3.00
 293.562   81.442   45.066         3.00
  96.724   80.267  347.042         3.00
 150.061   27.804  143.616         3.00
 115.544   65.268  154.008         3.00
  94.182   93.799  320.193         3.00
  92.785   93.837  348.505         3.00
  87.207   66.249  197.921         3.00
 269.129   81.763   67.298         3.00
 260.401   90.701   14.414         3.00
 131.430  110.765   24.192         3.00
 117.290   75.841  331.280         3.00
 122.392   80.514   92.411         3.00
 194.213  128.928   51.733         3.00
 237.747  114.480   80.008         3.00
  71.643  106.442  214.509         3.00
  99.798   72.988  141.070         2.00
  92.549   85.779  329.017         2.00
 261.564  110.651  115.090         2.00
 150.804   13.586   88.297         2.00
 271.734   87.083   31.190         2.00
 125.996   54.538  325.738         2.00
 123.721   61.933  343.669         2.00
  57.482   85.890  236.935         2.00
 268.472   57.439   38.060         2.00
 119.694  113.461  268.684         2.00
 355.509   45.895  300.411         2.00
 283.662   78.356   76.698         2.00
 252.608   59.979   66.514         2.00
 319.985   49.870  323.294         2.00
  36.649   48.507  227.329         2.00
 104.427   12.921  344.302         2.00
 288.321   64.665  327.644         2.00
 215.557  145.781   49.590         2.00
 268.373   76.741   65.290         2.00
 327.784   61.378  102.059         2.00
 120.780   75.486  114.951         2.00
 334.467   73.556   16.390         2.00
 355.839   59.886  155.889         2.00
 284.990   56.984    5.459         2.00
 127.649  111.826   30.532         2.00
 202.008   52.109   67.605         2.00
 278.133   95.482   21.360         2.00
 272.410   97.406  198.274         2.00
 273.742   83.159   88.731         2.00
 265.151   76.958   43.820         2.00
  90.623   81.572   16.767         2.00
  43.983   57.533  319.378         2.00
 290.708  120.860  197.790         2.00
 180.209  141.129   28.911         2.00
 118.945  108.552   23.758         2.00
 304.569   74.845  282.579         2.00
 111.511   77.324  331.150         2.00
 255.373  101.568   98.484         2.00
  33.306   58.406  227.745         2.00
 307.873   17.951  301.817         2.00
 173.610   27.963   87.312         2.00
 189.777   28.410   57.728         2.00
 178.287  125.103  176.440         2.00
   2.963   50.979  301.407         2.00
  89.341   98.875  337.852         2.00
  20.459  120.294  175.167         2.00
 202.662  148.807   58.939         2.00
 167.843   97.967   41.671         2.00
  79.238   91.770  203.853         2.00
 130.960  101.156  268.075         2.00
 276.041   90.900   48.608         2.00
 332.487   93.192  196.549         2.00
 107.213   84.127  326.317         2.00
 315.002   65.279   37.793         2.00
 354.568   66.952  193.624         2.00
  89.852   86.603  195.575         2.00
  96.551   96.546  139.947         2.00
 105.694   72.433  342.628         2.00
 123.449  105.548  316.928         2.00
  63.805   82.753  250.994         2.00
  50.164  111.970   19.885         2.00
 240.639   30.143  332.773         2.00
 307.299   84.711   22.523         2.00
  63.269   66.857   27.436         2.00
  45.059  110.917  208.701         2.00
 134.415  150.343   56.608         2.00
  45.208  113.564  213.054         2.00
 185.578   40.362  118.983         2.00
 299.473   86.623   49.960         2.00
 220.880   44.679  287.812         2.00
 123.506  143.451  129.777         2.00
 100.894   75.718  343.681         2.00
 279.791   72.637   28.294         2.00
 264.589  106.012    4.070         2.00
  87.275   91.577  214.707         2.00
 139.098  115.784   54.264         2.00
 356.952  125.013  163.288         2.00
 211.978  116.839   33.915         2.00
 268.626   83.702  208.289         2.00
 111.899   49.746   71.361         2.00
 108.190   91.451  137.215         2.00
 133.045  114.537  356.693         2.00
 162.490   55.332  132.314         2.00
 112.430  119.956   34.895         2.00
 270.700  154.277   58.108         2.00
 154.830  106.338   43.586         2.00
 262.634  104.169   81.898         2.00
 255.346   77.232  268.825         2.00
 117.266  102.859  260.648         2.00
  57.281   83.656  216.044         2.00
 131.261  109.586   43.549         2.00
 245.987   58.321   12.954         2.00
 106.267  160.305  231.877         2.00
 291.056   95.960  202.126         2.00
 182.726   80.321   35.223         2.00
 249.472   99.881  109.145         2.00
  10.151   87.692  201.754         2.00
 286.065   90.038  116.877         2.00
 109.179  138.308  298.724         2.00
 202.723   20.378  286.269         2.00
 251.516   91.923   87.099         2.00
 278.119  108.105   40.953         2.00
  26.367   59.830  230.778         2.00
  96.348  135.145   47.307         2.00
 149.035  114.815  163.831         2.00
 100.031  100.588  322.840         2.00
 317.154   56.343  108.535         2.00
  75.601   79.165   21.580         2.00
 255.746  101.785  339.429         2.00
 128.306  119.547   34.195         2.00
 107.221   91.995  136.856         2.00
 179.692  112.036   55.478         2.00
 270.816   77.330   35.967         2.00
 294.146   76.890   67.872         2.00
 258.249   82.703  209.659         2.00
 275.663  118.289  216.642         2.00
 315.698   66.460  328.178         2.00
 123.570  144.019  130.512         2.00
 345.336   61.461  140.497         2.00
 185.060  116.595  196.553         2.00
 259.173   80.024   36.291         2.00
 306.067   61.583  274.456         2.00
 118.992   80.735  326.076         2.00
  91.150   81.800   16.516         2.00
 296.483   47.311  349.058         2.00
 122.629   54.740  328.348         2.00
 273.489   51.680   18.041         2.00
 121.570   54.286  329.746         2.00
   6.433  103.861  195.380         2.00
 358.309  103.550  200.814         2.00
 115.249  102.401  233.163         2.00
 105.860   90.727   79.450         2.00
 175.209  112.721  165.860         2.00
 110.735   86.559   74.130         2.00
 277.577   78.322   41.891         2.00
 299.388   89.939  330.722         2.00
 141.626  162.320  120.425         2.00
  98.694  107.955  305.573         2.00
 302.345   65.845   94.409         2.00
 168.758   79.274   93.133         2.00
 291.607   82.758   53.792         2.00
 155.427   23.244  327.752         2.00
 106.346   99.205  331.783         2.00
 112.846   93.535   41.248         2.00
 292.782   86.214  198.389         2.00
 237.042  106.822   94.062         2.00
  86.923   91.559  334.879         2.00
 108.873   91.109  333.138         2.00
 254.607   94.491    7.811         2.00
 181.189   39.918   98.938         2.00
 288.671   85.988   48.496         2.00
 293.720   77.034   68.093         2.00
 251.159   65.017   36.580         2.00
 183.461  131.297  183.519         2.00
 271.847   88.747  224.554         2.00
  77.344   39.735    4.696         2.00
  72.559   78.322  316.983         2.00
 323.714   52.887  126.778         2.00
  35.785   48.450  228.855         2.00
 273.780   89.369   95.768         2.00
 181.293  137.270  157.399         2.00
 148.398  118.633   18.382         2.00
 250.366   77.422   42.025         2.00
 229.058   99.233   93.016         2.00
 318.093   75.528   51.470         2.00
 204.759  156.093   29.389         2.00
 271.246   86.799   30.888         2.00
 305.742  124.676  334.083         2.00
 105.559   72.397  342.759         2.00
 250.700   94.082   87.297         2.00
 259.736   89.053   86.540         2.00
 243.826   90.171   72.798         2.00
  60.176  103.290  204.500         2.00
 179.544   57.615  124.024         2.00
  88.797   64.869  338.045         2.00
 254.278   75.224  323.511         2.00
  93.318   97.334  330.874         2.00
 260.482   84.410   47.135         2.00
 318.681   68.774  324.435         2.00
 171.222  142.934    6.075         2.00
 189.391  109.443   38.265         2.00
  83.440   97.620  274.073         2.00
 141.199  138.491  155.967         2.00
 281.438  143.746  116.653         2.00
  79.798   90.310  333.484         2.00
 260.024   90.405   86.392         1.00
 119.791  101.277  323.650         1.00
 113.773   70.686  137.120         1.00
 105.093  123.959  354.826         1.00
 307.230   68.649   89.861         1.00
 121.635   81.614   92.616         1.00
 121.623  114.371  325.983         1.00
   8.771   79.932   42.999         1.00
  92.896   89.204  137.748         1.00
  22.768  126.976  230.881         1.00
 164.922  146.893  154.042         1.00
 124.201  124.154  274.332         1.00
 112.936   98.787  314.973         1.00
   5.794   44.471  229.806         1.00
 101.204  106.468  145.744         1.00
 141.446  141.746  136.966         1.00
 128.573  120.341   34.402         1.00
 348.432  136.680  177.887         1.00
 179.247  101.835    9.707         1.00
 180.681  108.831  148.424         1.00
 120.405  115.333    5.280         1.00
 357.586  123.728  193.351         1.00
 254.215   83.098   73.760         1.00
  42.908   51.854  188.463         1.00
  87.082   90.778  214.927         1.00
 260.951   84.208   81.973         1.00
  25.113  152.201  216.428         1.00
 299.472   76.516  334.425         1.00
  93.966   97.410  324.194         1.00
 194.432   36.917  102.976         1.00
 188.078  135.644  302.775         1.00
 105.529   71.983  342.565         1.00
 138.363  112.371   95.323         1.00
 265.222  100.800   51.167         1.00
   8.618  117.660  200.320         1.00
 223.855   67.238   87.606         1.00
   2.847   47.130  220.101         1.00
 277.528   78.095   42.096         1.00
  93.769   97.080  330.540         1.00
 139.571  110.077   98.427         1.00
 351.531   97.858  189.796         1.00
 127.997  119.346   33.969         1.00
  25.584   60.378  230.867         1.00
 264.869   88.979  204.266         1.00
   6.709  104.929   15.088         1.00
  50.219  112.388   20.451         1.00
 297.536   88.227   13.689         1.00
 111.529  160.602  109.947         1.00
  12.457   34.569  184.942         1.00
 100.420   36.562  184.412         1.00
 320.575   42.512   84.389         1.00
 294.034   75.114   40.411         1.00
 258.460   93.532  338.393         1.00
 327.103  115.018   73.093         1.00
 284.830  100.563  224.305         1.00
 106.862  160.590  232.182         1.00
 103.178   73.156  346.871         1.00
   0.209   76.269  230.295         1.00
 175.104   99.934   63.353         1.00
 297.186   74.605  329.121         1.00
 351.790  104.351  204.999         1.00
  93.085   75.003  341.748         1.00
 273.284   76.065   30.124         1.00
  76.539   92.851  338.370         1.00
 120.927  115.798    5.489         1.00
 107.804   84.193  325.974         1.00
 276.797   76.766  176.730         1.00
  95.349  105.124   60.589         1.00
 276.294   90.919    6.816         1.00
  93.871   90.178  324.784         1.00
 264.210  106.049    3.549         1.00
 166.010   83.856   66.274         1.00
  19.980   46.074  102.453         1.00
 104.564  101.410  283.410         1.00
 173.523  119.432   61.748         1.00
 125.830   67.525  141.867         1.00
 122.915  121.585  274.071         1.00
 175.209   42.522  107.979         1.00
 173.280   41.829  114.215         1.00
 112.299   49.246   71.920         1.00
 275.443  105.777  105.378         1.00
 125.819   56.197  329.051         1.00
 230.397   98.742   93.077         1.00
 167.476  147.817  149.586         1.00
 318.536   48.244  263.900         1.00
 249.037   81.863   75.965         1.00
 289.440   65.859  326.718         1.00
  90.047   26.826  182.788         1.00
 110.602  103.700  292.401         1.00
 353.370  140.833  353.529         1.00
 188.540   28.543  299.600         1.00
 184.236   76.249  266.888         1.00
   4.920   84.037  197.535         1.00
  89.990   65.239  336.923         1.00
 288.730   88.969  206.471         1.00
  57.476   86.465  357.078         1.00
 253.368   26.202  358.390         1.00
 119.825   97.509  303.175         1.00
 307.521   84.098   22.610         1.00
   9.088  140.120   29.063         1.00
 257.972   82.746   88.899         1.00
 324.171  148.767  153.135         1.00
 185.779   29.495   71.589         1.00
 353.218  131.619    2.608         1.00
 232.774   39.532  358.173         1.00
   4.752   42.314  125.284         1.00
  16.544  143.844  212.509         1.00
  85.035   94.620  292.231         1.00
  95.058   88.387  133.892         1.00
 246.153   57.495  252.176         1.00
 167.356   72.055   57.216         1.00
 118.661   79.876  326.383         1.00
 359.123   99.862  137.624         1.00
  74.671  103.664  337.290         1.00
 103.079   92.318  328.073         1.00
 117.519  101.389  326.310         1.00
  97.776   55.041  342.629         1.00
 187.619   74.404  203.643         1.00
 109.799  139.087   59.265         1.00
  17.741   42.066  161.360         1.00
   3.608   28.033  201.763         1.00
 176.861  120.297  144.853         1.00
 295.977   47.225  349.494         1.00
  97.482   93.388  138.968         1.00
 109.927   93.519  340.316         1.00
 256.902  145.088  254.029         1.00
 272.199  168.957  271.270         1.00
 131.785  149.626  294.254         1.00
  89.599   91.603   14.395         1.00
 228.676  159.905    7.477         1.00
  86.362   91.175  274.265         1.00
 308.212   18.398  300.771         1.00
 323.905  156.254  329.009         1.00
 171.047  101.874  256.695         1.00
  45.323   28.025   61.407         1.00
 296.250   77.861  116.905         1.00
 259.914   99.688   25.294         1.00
 168.877   21.563   88.281         1.00
 129.477  120.428   34.678         1.00
 313.042   75.848  318.727         1.00
 192.145   17.898  284.442         1.00
 357.185  104.936  143.727         1.00
  69.995   80.558   10.389         1.00
  70.476   88.035  212.545         1.00
 299.419   91.009  141.838         1.00
  96.428  135.471  287.205         1.00
 250.536   92.575   86.923         1.00
   4.980  139.697  180.653         1.00
 239.714  120.743   59.576         1.00
 274.333   90.169   41.103         1.00
 267.521   94.845   67.843         1.00
 290.145   90.197   37.779         1.00
 340.491   38.764  228.051         1.00
 354.323   11.442  293.348         1.00
 173.964  169.341  186.457         1.00
 299.357   86.575  229.923         1.00
 257.779   73.393   61.270         1.00
   6.890  100.589  193.156         1.00
 240.896   29.202  332.337         1.00
 172.526   48.617  297.261         1.00
 121.023  107.615  340.227         1.00
 235.988  136.621  118.383         1.00
 185.026   30.274   55.446         1.00
 232.105   38.647   58.710         1.00
 269.768   56.714   37.497         1.00
 269.626   56.783   37.517         1.00
 109.535   82.833  142.944         1.00
   2.202   36.804  252.127         1.00
  88.780   97.866  172.144         1.00
  35.907   30.389  244.237         1.00
  93.411   96.971   78.753         1.00
  94.897   95.000   80.074         1.00
 359.266   38.476   33.360         1.00
 173.518   97.545  206.811         1.00
 187.787   69.417  268.236         1.00
 263.025   80.056   36.204         1.00
 346.562   86.690  156.558         1.00
 273.923   84.267   86.978         1.00
 120.290  115.449    5.152         1.00
 291.030   85.215  198.424         1.00
 192.273  141.107   31.469         1.00
 104.394  148.021  296.312         1.00
 268.806   76.477   65.327         1.00
   9.234   30.678  160.353         1.00
 253.919  134.452   68.343         1.00
 254.650   94.248    6.541         1.00
 119.997  110.629  319.601         1.00
 336.756  149.895  181.613         1.00
  90.443  105.623  333.042         1.00
 332.127  156.456  170.861         1.00
 182.002   37.253   83.287         1.00
 254.813   26.784  357.274         1.00
 325.035   42.518  248.064         1.00
  71.007   88.324  213.963         1.00
  92.839   75.374  341.088         1.00
 351.825   42.410  298.331         1.00
 203.042   40.572   76.467         1.00
 208.751   73.435   69.568         1.00
  86.663   90.929   36.171         1.00
 352.277   42.197  298.067         1.00
 169.559  140.839   88.622         1.00
  75.528   35.117   47.328         1.00
 177.555   80.236  266.496         1.00
  19.625   30.999   63.117         1.00
 341.993  155.924  184.542         1.00
 274.422   82.451  148.206         1.00
 273.938   82.044  148.922         1.00
  57.849   86.235  257.282         1.00
 285.364   77.654   27.224         1.00
 320.190   60.306  351.324         1.00
  86.459   91.180  334.228         1.00
 208.998   51.139  278.863         1.00
 282.620   86.164   93.710         1.00
 259.524   87.748   88.042         1.00
 250.051   81.801   75.685         1.00
 342.352   63.380  273.718         1.00
 270.222   92.761  224.590         1.00
 358.261   54.789  183.845         1.00
 200.972  149.142  352.880         1.00
 126.192   28.110  125.996         1.00
 205.487  119.610   68.069         1.00
 351.524   34.951  258.243         1.00
  93.593   96.830  330.360         1.00
  20.467   31.401  247.757         1.00
 267.459   67.242   31.772         1.00
 299.730   89.979  142.321         1.00
 351.047   41.394  298.993         1.00
  10.335   60.142  219.128         1.00
 113.552  129.165   79.861         1.00
 292.166   50.361  341.137         1.00
 212.402  121.306   72.197         1.00
 174.527  171.159  187.547         1.00
  13.984  132.819  174.179         1.00
  52.578  142.330  242.518         1.00
 122.013   80.789   92.735         1.00
 341.154   65.528  271.032         1.00
 221.399   44.568   48.211         1.00
  11.342  138.937  359.470         1.00
 180.477   40.423   97.156         1.00
 181.335  136.372   39.271         1.00
 282.549  110.533  103.552         1.00
 110.989   59.214  341.688         1.00
 171.712  146.186  282.877         1.00
 256.630  144.565  254.803         1.00
 106.259   13.300  341.571         1.00
  59.441   83.693   29.967         1.00
   0.885   76.612  229.906         1.00
  83.388  100.149   23.784         1.00
 357.137   85.569  199.600         1.00
 196.913   64.490  116.612         1.00
 291.721   71.776   14.851         1.00
 358.571   81.827  161.018         1.00
  83.485  104.622   27.780         1.00
 293.324   74.983  272.958         1.00
 113.289  104.840   86.479         1.00
 358.022  122.129  167.313         1.00
  59.078  144.247  252.135         1.00
 174.167   93.656  262.847         1.00
 255.516   63.382   22.194         1.00
 217.510  136.610  215.033         1.00
  35.410   43.606  148.692         1.00
 312.252  149.608  174.962         1.00
 334.063   40.101  248.983         1.00
  93.838   62.572  333.165         1.00
  92.598   85.825  328.899         1.00
  44.001  112.400  211.185         1.00
 313.579   75.879   18.433         1.00
 185.183   95.357  162.527         1.00
 313.153   75.644  319.083         1.00
 107.012   83.093  327.620         1.00
 102.894  100.875  133.884         1.00
 189.184   62.116   99.163         1.00
 191.632  119.427   10.612         1.00
  75.165   91.275  217.978         1.00
  87.901   91.108  215.234         1.00
 138.450  112.902  278.916         1.00
 183.972   29.821  296.415         1.00
  59.254   82.870  211.519         1.00
 193.866   87.861   82.895         1.00
 227.451   81.283   78.494         1.00
  82.333   76.042  338.115         1.00
 348.785   10.516  298.638         1.00
 118.146   93.371  190.524         1.00
 195.504   95.869  184.581         1.00
 351.333  130.543    0.703         1.00
 257.867   92.891  346.403         1.00
  13.890  144.503  209.104         1.00
 150.968  123.383   32.550         1.00
 298.854   70.953  336.014         1.00
 116.907  107.654  304.163         1.00
 101.084   75.803  343.826         1.00
 357.359   35.100  185.082         1.00
 177.623  148.134  156.449         1.00
  94.676  103.755  280.891         1.00
  81.409  100.362   39.552         1.00
 291.645   96.027  202.590         1.00
 153.747   87.945  343.854         1.00
  60.188   94.281  277.032         1.00
 120.684  100.524  323.937         1.00
 115.905   90.457  326.686         1.00
 295.555   89.341   33.538         1.00
 350.832   63.590   60.072         1.00
 347.290  139.480  334.648         1.00
 180.312  100.234  273.780         1.00
  95.216   98.485  319.162         1.00
 266.661  104.030   38.458         1.00
  23.975  138.243  189.344         1.00
 249.924   77.554   42.114         1.00
   7.472  150.800  359.850         1.00
 141.671   88.430   19.979         1.00
   4.337   38.876  309.720         1.00
  41.883  151.905   42.367         1.00
 246.366   66.820   38.216         1.00
 269.041   76.146   21.814         1.00
 118.313  101.096  326.964         1.00
 327.386   44.082    6.956         1.00
  18.347  146.406  192.997         1.00
 296.140   89.765   93.839         1.00
   2.799   34.221  259.261         1.00
 262.975   85.636   38.481         1.00
  94.239   98.237  324.753         1.00
  94.034   98.452  323.829         1.00
  96.048   94.827  140.178         1.00
 106.080   72.443  342.701         1.00
  90.584   89.782  292.064         1.00
 167.867  104.245  186.319         1.00
 119.460   70.940  110.801         1.00
  22.216    2.026  202.011         1.00
 101.050   36.090  183.488         1.00
   1.365  138.732  202.989         1.00
 175.398   40.142   70.751         1.00
 147.123   65.803  108.220         1.00
 271.588   87.154   31.034         1.00
 121.020  115.396    5.513         1.00
  79.451   74.005  352.801         1.00
 165.348   83.955   66.466         1.00
 138.776  115.424   53.728         1.00
  82.986   81.143  326.836         1.00
  99.859  110.928  250.187         1.00
 308.063    8.809  314.350         1.00
  74.813   84.910  292.609         1.00
  73.370  154.071   62.056         1.00
  13.559   96.846  187.363         1.00
 175.188  167.510  155.022         1.00
 350.441  130.602  180.495         1.00
  51.998  141.643  181.402         1.00
 329.708   62.965  206.680         1.00
  79.350   48.305   17.203         1.00
 291.180   82.291   53.687         1.00
 359.834   84.195  100.857         1.00
  73.518   46.056  171.717         1.00
  95.217   97.181  318.459         1.00
 200.768   83.375  206.585         1.00
 356.153   93.421  203.929         1.00
 315.832   70.279  241.213         1.00
 199.114  114.706  152.341         1.00
  87.545  102.296   50.117         1.00
 153.951   23.763  308.185         1.00
 332.741   75.389  343.478         1.00
 325.092  150.175  352.674         1.00
  85.166   97.943  318.609         1.00
 330.275   96.224  194.784         1.00
 237.684   92.931  102.123         1.00
 195.739   96.862   64.897         1.00
 285.595   81.433   42.792         1.00
 266.932  100.268   99.839         1.00
