TEXTURE AT STRAIN = 0
1.0   1.0   1.0
DISCRETE TEXTURE FROM ODF FILE TD_625C_20
B 4028
 204.796  143.518  201.407      5201.20
 353.647   46.363   94.037      3908.68
 348.602  133.426  269.173      2576.28
 351.645  146.636  121.608      1944.01
 173.324   91.310  268.187      1889.36
 207.633   46.114  156.200      1618.95
 173.329   60.786   64.720      1610.51
   9.739   40.187   41.341      1503.63
 345.679  137.820  291.249      1482.01
 189.616   50.143  245.350      1464.56
  13.585  133.645  256.021      1458.00
   5.714   56.651  236.834      1448.13
 187.933  122.892  135.611      1418.65
 183.073  141.518  143.073      1387.69
  35.754   27.410  340.679      1380.40
 167.528   33.895   33.626      1344.32
 133.699  152.628   65.585      1325.29
 203.745  140.146  187.664      1304.65
  14.252   50.583  189.146      1174.62
  32.867  117.096  132.787      1167.20
 192.752   44.564  207.320      1148.93
 190.540  150.303  197.780      1139.67
   1.623  148.965  288.975      1082.17
 171.172   53.437  287.635       951.78
 184.538   72.693  179.311       948.96
 165.086   54.153  140.844       945.84
 190.158   37.760   72.549       939.25
 197.796   29.213  247.919       918.51
 188.200   37.007  217.991       898.42
  26.886   39.589   27.268       894.62
   5.797   34.185  242.878       883.52
   1.917   41.763  240.090       882.66
 335.376   42.751  122.039       844.96
 193.478   49.267   90.779       810.75
 197.411   72.756  308.422       791.74
 151.003   34.329  245.346       778.34
 222.228  119.499  336.264       773.75
 154.801   23.414  103.779       740.07
 178.687  131.796  137.100       736.78
 339.042  141.173  254.659       720.84
 183.767  142.513  289.474       718.14
 152.935   31.134   12.859       715.55
 354.517  139.457  272.055       709.58
  39.643  152.095  242.102       699.77
 182.094   50.966  223.390       699.50
 347.993   94.210  144.892       696.71
   7.210  117.387  226.174       690.69
  35.232  142.758  317.895       688.04
 351.331   31.453   56.326       685.69
   7.192   31.333  221.301       679.38
 327.645   24.956  110.870       675.75
  19.083  151.538   35.794       675.50
 178.812   48.890  338.979       675.50
 341.850  137.476  262.429       674.34
 296.312  123.811   95.273       662.34
 162.843  155.615  139.046       653.23
  25.915  139.120  245.657       642.19
 195.560   29.590  228.666       634.72
 127.615  124.600  342.441       632.48
 150.623   91.363  317.103       627.16
   9.210  130.241  358.702       622.38
 178.538   29.442  268.735       617.81
 315.841   41.241  264.067       617.25
 184.133   36.712  241.139       603.15
 354.333   43.486  267.969       602.28
 273.107    7.552  105.154       586.94
 179.514   47.708  262.794       575.24
 227.762   43.747  249.079       574.47
 201.480   47.486  268.070       572.94
 190.009  129.827  173.404       570.12
 189.118   52.875  217.719       569.10
 339.797  139.830  314.677       564.80
 161.607   76.767  286.891       557.79
 125.748  149.101   96.124       546.26
 162.115  102.435  274.158       515.31
 348.902  121.488  276.511       514.57
   3.162  125.119  207.284       513.73
 157.087  137.019  160.528       513.69
  32.336   45.809  165.885       511.94
   4.297   77.748  206.078       508.25
 171.332   52.398  238.197       506.37
   9.748   52.558  163.221       502.03
  17.732  102.475  252.827       500.25
 211.364   33.179  182.180       500.16
 356.583  138.167  277.601       490.56
 168.031  125.611   64.924       490.11
 147.803  143.922  144.971       489.59
 327.270   31.841  269.320       486.47
 237.978  166.007  329.638       477.80
  65.960   53.280  133.603       475.65
 191.536  128.215  182.332       474.22
 114.114  154.209   77.130       466.90
 353.965  114.204  287.314       463.95
 358.476   51.497  200.397       463.92
 188.003   39.445   20.845       456.00
 336.896   44.491   66.206       455.57
   5.246   39.107   78.331       455.23
  20.563   66.471  101.167       453.02
 166.480  125.133  121.726       452.43
 190.458   68.194  253.589       451.18
   1.843   42.580  246.888       447.99
 342.111  122.807  122.599       447.25
 161.576  105.178  299.680       445.88
  15.512  136.784  332.705       445.64
 352.947  100.036  152.144       445.23
 319.974  132.853  101.762       444.35
 165.259   81.752   95.806       443.31
 183.888  147.334  148.129       443.19
 208.408  156.539  170.552       441.25
 348.233  136.285  313.460       436.98
  92.540  153.938   46.859       434.26
   1.307  135.462  255.226       432.97
 171.814   27.918  310.421       432.88
   5.686  138.932  203.312       426.43
 352.582  139.063  285.219       424.20
 119.980   29.403  284.066       423.70
 171.515  117.750  321.966       417.50
 159.824  177.970  114.390       416.14
   0.086   41.375  116.311       411.19
 180.093  133.504  157.253       410.25
 198.741   80.307  219.762       407.62
 342.813  125.426  120.592       405.05
 173.700   45.080  272.777       397.89
   4.769  127.287  286.267       397.58
 115.909  163.573   78.448       395.25
 178.538  130.963  243.718       395.01
 341.399  144.023  303.074       392.78
 163.696  131.322  144.513       389.47
 161.564  123.042  137.789       388.40
 166.414   45.708  234.913       387.23
 196.956   50.664  212.828       384.37
   2.968  149.004  270.269       378.01
 211.944   34.680  196.195       376.58
 337.936   33.231  243.044       373.85
 186.186   22.226  334.940       369.14
 342.316   77.496   78.187       367.54
 139.612  146.080  134.843       365.57
  21.135   92.012  126.764       365.41
 334.673  148.241  286.923       365.07
 334.740  129.282  118.185       362.94
 353.122   29.339  236.330       359.32
 260.162  108.397   57.617       358.66
 352.193  121.804  238.732       358.15
 323.149  148.771  177.071       357.95
 182.813  149.252  165.776       357.57
 189.739  131.858  176.766       356.58
   5.771   56.131  113.619       355.76
 343.454   20.355   93.765       355.31
 115.247  162.609   15.370       354.94
   9.293  125.709  178.348       354.75
 291.479  156.376  254.816       354.72
 173.877  147.173  110.696       354.06
 190.653  129.581  166.702       353.87
 143.449  127.755  103.814       353.81
  21.538   87.495  145.918       351.37
 236.269  155.177  201.669       347.68
 101.837   83.842  354.931       347.01
 353.568   49.070   91.874       346.69
 169.959  139.790  143.952       346.56
 168.007  119.897  327.427       342.47
  99.587   99.914    0.489       338.70
  31.972  129.835  318.267       337.26
  46.812   22.518   36.913       336.56
 178.810   60.049  265.300       336.07
 189.467   20.388  188.508       334.00
   1.019   49.085  223.300       333.25
   5.214  129.765  306.977       331.61
 200.978  117.787  151.405       329.31
 116.603   32.468  115.326       328.85
 157.605  160.252  138.633       328.41
 290.913  157.566  266.472       325.70
 197.462  109.959  208.511       325.58
 183.405   99.833  217.907       323.20
  43.459  140.450   20.608       322.98
  31.647  140.863  336.232       320.67
 133.543   28.922  266.535       320.38
 351.481   31.729   52.398       320.28
   6.527   39.375   40.620       317.22
 277.947   47.780   60.608       314.45
 189.046  131.474  141.715       314.13
 205.926  122.247  329.350       310.94
 171.140  138.370  161.373       310.18
 198.861  133.832  242.871       309.96
  23.428  103.737  338.275       308.55
 161.366  119.214  138.327       308.28
   5.157  110.433  142.516       307.54
 193.731   30.040  263.434       306.25
 336.428    5.834   49.794       304.82
 167.306   52.001  238.418       304.50
  65.901   63.230  121.079       304.45
 143.042   27.962  246.307       302.13
 191.514  125.911  168.013       301.50
 174.078  140.513  152.905       297.94
 351.670   32.333  229.211       297.00
 359.331   39.235  210.478       292.38
  28.964   22.535  154.559       291.33
 266.858  134.206   49.127       291.26
   8.027  118.138  201.182       287.58
 195.685   65.317  298.622       286.50
 175.601  145.086  244.310       284.25
  75.632   31.313  356.474       284.03
 293.172   31.451   95.035       284.00
 326.143    9.989  111.532       283.84
  17.536  137.191  335.387       281.81
 292.736  131.933  224.628       280.71
 299.820   34.812  297.738       280.69
 354.203   53.726   58.844       280.31
 213.786  150.884  194.002       279.95
 211.952   34.803  263.584       276.50
  82.737  148.673   32.912       276.34
  41.830  139.594  297.998       275.75
 156.169   74.377  269.307       273.48
  43.101   69.356  146.696       271.10
   3.481  120.965  340.733       268.53
 165.985   83.105  300.167       268.15
 194.760  126.894  201.368       267.57
 341.909  160.629  180.558       266.68
  10.482   60.462  229.130       262.06
 170.680   52.566  231.230       261.00
 337.267   46.272  239.749       259.37
 168.972  120.211  333.894       258.19
  10.697   32.605   47.499       257.60
 318.679  142.587  301.960       257.45
 170.387   40.525  109.237       255.31
   3.303   58.244  245.903       254.83
 175.129   27.105  290.273       252.91
 185.797   67.129  244.425       252.70
 312.660    9.744  255.567       252.08
 353.469  131.468  142.815       251.81
 174.232   41.784   64.392       251.25
  24.778   48.485  212.565       251.12
 292.289  156.687  254.342       250.75
 163.999  127.683   90.528       250.40
 177.416   32.342  217.221       249.82
 271.763   25.810  310.217       249.81
 110.642   22.175  107.814       248.87
  47.555  160.988  309.642       248.00
 230.487   96.226  359.349       247.33
 343.353  122.304  242.668       246.98
 314.449   35.897  306.450       246.25
 196.039  135.090  166.992       243.91
 192.039   77.161   31.807       243.67
   8.173   68.315  177.069       242.31
 171.464   76.337  282.578       241.84
 194.868  120.107  178.652       241.56
 169.463  135.330  153.205       241.44
 356.166   49.102   49.361       240.00
 186.620   71.373  270.013       239.82
 266.477   21.066   61.658       238.97
  11.918   82.743  196.225       237.66
 306.742   71.239   54.355       236.39
 148.040  166.343  104.617       236.01
 347.500   33.464  238.066       235.58
 267.253   31.445  199.979       232.76
  39.651  156.892  358.237       232.09
  49.393  150.760  270.630       231.54
 158.435   42.753  234.336       231.12
 156.721   42.076    3.229       230.91
  91.764   60.732  317.892       230.27
 353.503   46.489  132.132       229.60
   3.303   51.049  184.716       228.92
 213.891   41.782  117.255       227.89
 204.612   55.972  316.128       227.25
  29.244  147.162  261.445       227.25
 121.236  161.644   84.906       226.50
 177.452  124.735  189.098       226.19
 334.759  109.726  257.719       225.00
 166.079  116.769  100.131       223.75
  11.426  121.112  176.977       223.07
 350.999  139.696  284.749       222.70
  14.661   63.564  179.728       222.62
 166.933   48.285  334.026       221.18
 311.113   47.954  263.655       219.77
 175.860   58.871   41.657       217.51
 180.232  144.494  148.318       217.21
 178.345   54.637  224.103       217.07
 342.320  128.183  198.889       216.67
  62.083  155.873   22.060       216.62
 264.305  139.864   48.103       215.43
 268.785  170.621  183.228       214.88
  53.343   16.309  212.703       214.81
   4.927   69.026   75.282       213.31
  12.159  124.713  300.856       212.94
 127.775  149.151   16.852       211.88
 358.659   93.205  238.570       211.84
 172.882  108.883  155.074       211.19
   1.902   52.118  187.299       210.56
 116.272  114.153  119.723       210.00
  94.778  160.838   50.359       209.70
 161.806   45.958   14.521       209.31
 188.857   73.315  241.813       207.49
 316.300   38.512  253.381       207.16
 160.559   49.701  245.686       206.34
  15.305   46.287  177.762       206.09
 280.189  121.429   60.720       205.57
 153.464   35.113  236.001       205.25
 355.216   74.149  255.599       204.90
 355.665  133.779  274.863       204.82
 194.317  158.797  169.953       203.48
  72.348   72.882  121.797       202.95
   2.667   78.337  162.837       202.30
 335.355  140.380  258.277       202.07
  10.028  118.359  213.056       201.56
 344.857   35.579  220.412       200.70
  95.732  163.594  324.548       199.50
 289.438   82.183   64.001       198.78
 104.307   67.724  318.001       198.38
 206.801  124.693  240.164       197.25
 329.112   20.293   67.506       196.88
 322.797   47.840  212.434       194.77
 152.406  153.393  164.117       194.28
  57.633  116.633    8.238       193.04
 135.329   37.277  160.420       192.52
  19.969  125.833   43.458       191.39
 342.764  147.625  215.966       191.10
 192.057   91.017  312.929       191.00
  11.436   56.948  163.999       191.00
  53.637  151.593   34.929       190.35
 295.386   30.081  275.657       189.85
 296.635  156.240  267.927       189.64
 172.359   72.366  282.556       189.34
 277.445  100.468   53.540       189.17
   6.081   54.296   54.835       188.25
 352.057   40.107  218.205       187.54
 346.123  112.637  206.657       187.37
 299.862   51.891  294.058       187.05
 160.311   59.547  274.636       187.03
 173.476  123.011  156.746       186.50
  38.128  148.489  339.168       186.18
 190.058   81.103  304.356       186.10
 143.748   37.803  273.625       185.81
 184.744   63.722  318.717       185.67
 345.752   93.945  268.909       185.57
 209.185   32.622  222.304       184.46
 265.247   14.164  320.018       183.62
 351.815   87.175  114.454       183.59
 341.947  130.325  304.563       183.00
  29.959   36.982  187.307       183.00
 197.806  125.242  184.425       182.41
  26.966   85.017  180.453       182.25
 178.288  106.970  157.227       182.03
 339.406  103.248  107.083       181.73
   1.472   28.952   36.864       180.94
   4.302  125.413  327.588       180.75
 183.305  152.625  287.878       178.88
 278.166   92.038   89.534       175.39
 286.586  152.394  257.041       175.37
 175.379   85.038  292.768       175.34
 207.959  145.378  196.312       174.50
  15.107   99.572  265.027       174.42
 178.583  149.418  158.602       174.27
 117.877   98.063   19.216       173.76
  14.076   42.042  212.025       172.40
  62.180   35.216  133.623       171.96
 175.756   48.014  290.795       171.67
 188.446   56.038   79.608       171.31
   2.720   52.933  146.835       170.18
 359.342   90.915  149.657       169.91
 289.900  122.202   66.005       169.81
 204.033   91.411  152.652       169.50
 189.232  118.039   15.651       169.25
  36.557   48.929  151.269       168.98
  12.588   66.294   61.025       168.37
  47.415  150.550  295.800       168.37
  74.733  139.776  342.843       168.25
  69.194  105.351  113.703       168.25
  87.149  116.138   56.751       167.75
   5.232   51.985   24.692       167.44
 175.705  121.669  126.785       167.24
 196.423   47.344  227.286       166.94
 156.006   44.197  116.829       166.14
  74.569  143.783  345.825       165.37
 208.968   30.944  256.945       164.73
  93.488  159.289   65.444       164.58
 231.259   31.245  245.643       163.72
 192.169  151.791  172.205       163.60
   2.851  121.409  216.879       162.99
 352.951  132.655  184.685       162.82
   5.618   90.758  220.041       162.71
  63.929   19.466  336.554       162.32
 359.276  156.150  274.432       162.04
  15.976   60.134   86.988       162.02
 199.677  118.420  191.935       161.73
 191.141   35.023  179.714       160.20
  96.207  119.070   98.276       160.18
   0.154  131.260  284.317       160.14
 227.847  160.879  216.661       159.99
 351.202   87.395  126.202       159.07
 161.077  140.469  119.102       158.40
 259.806  151.646  250.211       157.99
 359.437   81.787  213.533       156.22
 354.166  171.488  273.100       156.17
 157.739   23.661  230.274       156.12
 354.162  118.736  270.907       155.93
 205.082   40.197  290.266       155.76
 354.735   55.682  240.050       155.42
 155.016  135.581  134.027       154.78
 184.105   47.627  280.836       153.25
 343.478   70.352  226.331       152.70
 185.719  124.283  123.356       151.94
  87.872  151.226   48.367       151.55
  72.476   71.463  146.993       150.81
  14.592   67.161  110.536       150.31
 177.984   78.116  141.101       150.27
 192.727  124.690  194.282       149.94
   9.358  138.448  306.993       149.75
  46.281  131.823  344.447       149.06
 154.074   43.784  310.002       149.01
 189.580   92.445  211.132       148.49
  65.949   26.657  305.880       148.13
 169.332   77.360  240.353       147.27
 352.170   82.410  108.035       146.39
 353.099   96.878  271.972       146.36
 352.437   82.428  262.683       146.15
 203.563   99.775  184.611       145.50
 179.586   56.830  231.533       144.81
 350.649  116.879  266.053       144.34
 282.215   26.405  199.302       143.92
 358.983   48.028  194.447       143.88
   6.728   16.609  205.832       143.65
  72.476   57.795   11.641       143.13
  19.034   80.421  102.438       142.44
 193.128   43.036  208.722       141.50
 207.986   90.027  271.496       141.25
  85.829   36.172  109.781       141.15
  57.964  153.183   33.503       140.76
 334.668  131.114  132.645       140.25
 261.487   15.657  354.463       139.74
 346.732  102.039  247.033       139.53
  48.634  165.673  355.580       139.17
  16.868   50.523  156.116       139.12
  19.891  133.408  317.372       138.25
 343.448   76.601  223.397       138.12
 164.078   54.385  244.785       138.00
 201.533   57.585  272.462       137.00
 165.035  130.180  226.096       136.69
 180.410   63.412  251.470       136.24
   1.652  111.215  147.518       136.24
  30.504   34.149  138.394       135.80
 341.064   61.270  225.320       135.00
 214.248  110.353  334.557       134.31
   6.089   66.664  220.864       133.74
   4.789  133.074  199.884       133.59
   1.038   76.450  140.635       133.38
  15.208  145.652  301.202       132.75
 190.897   66.937  279.812       132.75
 250.972    1.216  143.114       132.57
 347.290  136.801  181.134       132.05
 310.863  139.052   99.428       131.82
 160.373  126.101  146.109       131.75
 172.534  104.090  145.582       131.59
  43.240   74.182   75.369       131.00
 179.635  100.423   83.250       130.72
   9.142   82.247  192.793       130.24
 342.987   58.146  270.626       129.88
 171.752  102.315   89.880       129.40
 142.452  142.891  140.873       129.09
 358.931   71.729  213.259       128.22
 195.831   88.763  254.736       127.87
  94.841  150.104   54.212       127.75
  40.961   98.440   65.339       127.50
 153.485   51.558  297.576       127.24
  41.682   24.618  356.846       127.23
 356.248   46.608   46.077       127.16
 335.907  138.587  248.517       126.82
 356.788    3.165   28.696       126.75
  21.273   48.134  212.199       126.75
 187.969  145.238  179.182       126.39
 169.775   17.608   77.439       125.09
  11.063   48.353   96.214       124.26
 310.168   87.061   87.268       123.75
 351.580  116.413  147.994       123.62
 176.548   63.576  150.220       123.55
   7.970   70.367  140.223       123.40
  24.448   49.339  186.125       123.26
  94.748    2.464  346.689       123.02
  43.169  164.785  347.957       122.84
 182.125   97.756  116.899       122.75
 211.547  132.479  338.634       122.41
 187.957  120.563  236.204       122.29
  31.404   35.495    3.658       122.07
  91.971   40.306  149.050       122.00
 315.173   10.914  172.672       121.89
 251.387  156.511  214.345       121.08
   3.817   94.506   93.985       121.00
 267.119  130.225   42.978       120.54
 196.578  123.516  182.696       120.34
  29.977   30.691  225.286       120.29
 234.939   63.084  305.917       119.94
 309.800  165.798  295.250       119.87
  79.005   78.100  145.496       119.25
 273.157   60.930   84.337       119.06
   1.100   83.207  215.768       118.69
 199.341   98.676  206.462       118.67
 114.244  119.944  301.427       118.21
 180.088  130.007  219.408       118.14
 333.645  161.514  268.016       118.06
 181.439  128.441  166.661       118.00
 348.670  161.235  269.580       117.93
 147.051  142.570  344.170       117.74
 200.214   70.175  199.582       117.67
 185.692   53.739   16.051       116.94
 158.922   57.762  285.462       116.53
 321.440   41.088  281.951       116.12
 345.027  113.863  267.956       116.10
  15.047   86.786  129.183       116.00
  83.128   38.032  318.596       115.76
 218.142  140.977  183.572       115.75
 276.865   35.858  177.632       115.00
 177.725   24.626   93.573       114.57
 177.324   62.531  278.503       114.05
 356.270  123.956  125.909       114.02
  60.288   58.790    9.560       113.96
 187.625   48.966  217.023       113.75
  75.113   74.045   61.269       113.32
 283.263  112.072  254.177       112.94
 295.603   68.411   40.588       112.71
 273.429   34.770  204.691       112.38
 113.553   72.963  346.133       112.34
  86.456  149.268   34.067       111.75
 179.135   71.035  289.394       111.60
   9.460   82.792  172.581       111.51
 259.845   75.122   74.868       111.50
  48.458  112.631   92.665       111.26
 340.014   77.426  103.548       111.00
  21.658   94.599  326.602       111.00
   2.803   69.788  126.274       111.00
 181.754  114.577  149.639       110.16
 211.083   45.435  187.237       109.91
 331.047   27.300   47.963       109.84
  18.528  126.693  271.776       109.61
   8.456  140.517  288.979       109.50
 353.594   39.458   98.987       109.48
 354.993   95.597  259.952       108.75
 138.933  172.045  122.059       108.50
   9.271   84.292  134.263       108.23
   9.751   78.978  203.954       108.07
 312.926  179.356  284.163       107.97
  33.015   99.410  156.080       107.75
   5.135   49.083   77.365       107.59
 189.958   76.839   32.878       107.42
 359.731   40.442  242.459       107.06
  30.177   96.338   37.234       106.25
 353.218   33.081   18.374       106.12
 107.473   32.429  331.336       105.28
 224.382  143.100  198.738       105.00
  28.489  153.714  298.421       104.94
 168.503   64.702  260.073       104.60
 155.576   39.500  258.076       104.39
 205.107   26.391  127.689       103.72
 166.767   81.538  279.529       103.16
 283.247   14.736  170.986       102.59
 175.991   58.668   22.511       102.57
  12.422   86.484  147.176       102.47
 177.622  138.798  241.309       101.69
 353.441  108.260  277.029       101.67
 171.052  151.407  142.731       101.56
 203.261  115.828  178.295       100.87
 356.920   92.586  269.217       100.82
 200.976   95.244  146.800       100.25
 238.544   73.090  138.189        99.19
  60.654  133.285   36.833        98.82
 193.989   94.481  201.231        98.81
 208.532  137.052  174.964        97.77
 332.198   94.226  153.912        97.75
 238.818  124.489  346.862        97.53
 349.543  127.737  300.420        97.30
 272.556  167.087  248.990        97.20
 277.534   21.088  169.295        97.20
 355.124   69.773  121.110        97.14
 118.798  109.607   85.103        97.09
 218.251   34.362   14.217        97.07
 163.574  117.988  152.656        96.89
  11.735  110.986  287.018        96.85
  26.646   84.490  120.499        96.50
  71.394  110.989   86.615        95.75
  60.610   65.203  110.782        95.59
 327.531  137.793  297.935        95.50
 223.620  142.902  214.022        95.50
 331.229  157.173  304.858        95.34
 187.912   54.464  315.148        95.01
 243.153  155.343  191.780        94.64
  10.854   81.055  193.648        94.53
  53.614  165.212  293.828        94.34
  69.186  157.990   36.055        94.22
 225.206   51.375  144.794        93.86
 337.267   42.506   63.892        93.76
 105.572  148.832   71.843        93.63
 136.399   41.678  115.766        93.56
 185.384   60.519  223.347        93.37
 236.147  116.738  282.618        93.34
   2.154  170.769  316.962        93.28
 189.332   97.795   88.498        93.21
  92.453   38.259  166.574        93.19
 351.720   77.443  166.127        93.01
 242.953  155.978  190.367        92.79
 256.594  122.828   30.548        92.75
 354.203   84.024  202.749        92.73
   0.164   95.019  217.572        92.42
 182.661   69.327   30.098        91.87
  12.161  151.320  336.567        91.23
 347.037   33.216  251.061        90.97
 176.008  152.467  145.850        90.75
  97.245  109.192   11.377        90.75
 294.973  151.205  264.271        89.81
 342.906  164.413  246.191        89.50
  96.832   40.838  157.568        89.31
 104.883   98.012  355.092        89.25
  47.366  138.549   37.230        89.09
 225.563   42.764  204.573        88.97
 168.970  148.074  129.978        88.67
 258.348   41.683  352.333        88.63
 285.939    8.125   91.106        88.33
 224.588  169.338  199.188        88.31
 297.801  122.237   55.480        88.19
 170.802  124.416  138.368        88.16
 186.340  100.278  192.141        87.79
   3.077   78.613  151.704        87.76
 193.369  155.242  161.743        87.76
 164.957  109.970  343.428        87.75
   4.441   87.514   85.609        87.60
 334.462   16.974  239.517        87.11
 344.076   63.110   84.357        87.04
 164.341  106.699  322.829        87.00
 288.119  119.835   63.743        86.89
 276.116  142.144   76.414        86.81
 352.316  170.404  321.696        86.75
 178.307   69.004  284.614        86.09
 354.493   94.167  204.123        86.04
 191.194   83.429  215.736        86.00
  16.301   20.514  229.825        85.97
 121.222  109.284   71.171        85.51
 185.725   91.621  319.662        85.30
 298.226   67.563   96.894        84.61
 279.771   17.265  168.110        84.19
 349.228   75.921   71.126        83.37
 162.423  172.399  136.047        82.87
  79.346  138.625   64.735        82.85
   1.871   86.317  156.879        82.78
  31.967  156.842  332.884        82.64
 198.027  137.655  185.804        82.62
 172.314  117.149  202.922        82.61
 225.209   16.847  190.603        82.49
 284.138   29.223  321.804        82.43
 197.838   80.646  101.173        81.99
   3.663   49.863  198.942        81.88
 193.708   75.671   15.157        81.81
 281.336   61.277   68.876        81.71
 274.148   16.497  281.986        81.29
   2.077   34.120   94.883        81.03
  94.927   37.733  334.119        81.00
 275.133  120.390   60.054        80.78
  80.175   33.515  134.817        80.47
 344.259   87.353  205.950        80.13
 266.367   52.296  332.152        80.00
 181.283   66.132  286.820        79.99
 356.954  154.263  332.350        79.84
 337.984  151.925  314.871        79.79
 159.266  103.277  173.000        79.44
   2.714  108.724  144.048        79.32
 303.990  151.257   93.889        79.19
 342.857  100.804  147.144        79.16
   2.636   68.426  191.454        79.13
 326.590   24.158  171.690        78.87
 102.132   27.012  157.546        78.65
 143.765   16.131  237.328        78.36
 175.825   85.656  268.016        78.28
  81.640  138.436   70.649        77.58
 336.644   47.339   67.430        77.56
 179.910  129.085  190.198        77.50
   5.815   68.364  204.135        77.14
 168.528  114.435  149.154        77.05
  41.897   59.454  150.953        76.95
 192.522    9.733  188.921        76.59
 169.319  117.328  215.147        76.50
  27.653   72.352  167.206        76.50
 171.076   91.081  321.904        76.42
  19.624   14.304  187.507        76.40
  12.668  117.167  264.336        76.36
 185.857  139.849  140.644        76.28
  76.385   68.892  357.483        76.06
 183.212   78.958   13.336        75.99
 105.126   76.245  127.146        75.27
  73.474  125.683  255.606        75.25
 172.131   86.353  262.600        75.13
 356.531  121.268  271.360        75.09
 342.100  117.051  143.344        74.87
 193.544   86.201  183.636        74.78
 192.236  124.870  163.343        74.64
  20.110   88.870  187.381        74.58
 181.077   73.439  124.753        74.26
 301.031  115.929  262.443        74.16
 356.432  117.109  273.214        73.78
 206.013   82.705  273.344        73.59
 155.345  162.093  117.812        73.48
 225.785   86.327  258.978        73.32
 205.152  129.827  237.241        73.31
 224.465   11.779  252.494        73.31
 159.462   18.650  242.222        73.00
 158.754   84.971  212.938        72.98
 129.522   29.248  262.245        72.87
 165.983   76.678  299.307        72.83
  16.298  101.471  342.144        72.79
  18.942  156.456  288.354        72.56
 230.630  159.702  210.336        72.47
  29.239  139.850    9.289        72.37
  68.453  113.913  350.659        72.25
 134.855  176.527   48.773        72.00
 105.649  147.257   82.021        71.89
  97.316  111.229  109.853        71.77
 194.642   82.735  340.373        71.50
   4.438  120.137  121.518        71.36
  15.744  158.921  212.744        71.31
 359.046   67.296  144.188        71.25
 210.821   90.603  241.878        70.97
 156.625   21.233  116.640        70.61
  14.534   68.780  151.550        70.60
 295.523  117.737   76.467        70.52
 245.293  158.526  206.998        70.31
   0.631   51.793   21.130        70.00
  94.919  154.057   37.514        69.88
   6.044   87.805  205.016        69.62
  30.492  151.165  348.298        69.56
 133.630   39.924   27.856        69.29
  25.720  164.369   11.651        69.00
 189.931   92.507  226.074        69.00
 356.568   98.939  151.716        68.96
 320.616  100.648  120.279        68.87
 138.215   33.509  127.376        68.78
 166.922  115.356   98.552        68.38
 231.596  150.137  214.723        68.33
 176.181  129.114  110.771        68.31
 181.601  105.679   69.980        68.28
 252.562   35.215  194.946        68.25
 123.891  134.617   88.179        67.65
 353.831  142.712  217.469        67.49
  86.005  145.484   23.467        67.25
 109.409  131.406  291.525        67.25
  25.222  104.871  289.938        67.25
  65.728  164.256   19.463        67.25
  29.831   84.211  153.977        67.12
 174.655  110.757  120.032        67.11
 195.569   57.800  280.757        67.06
 349.358   78.090  114.546        66.75
 175.052  129.222  162.777        66.48
 342.963   91.717  243.319        66.24
 177.285  107.526  328.890        66.23
 151.171   29.154  279.026        66.07
  18.959   44.470  182.896        66.05
  69.050  103.999  266.980        65.93
 349.412  101.165  189.986        65.88
 177.985  114.989  142.117        65.64
 331.041   58.131   89.692        65.39
 356.883   94.674  220.011        65.31
   0.864   59.460  212.201        65.08
 352.738  118.538  143.168        65.07
 250.432  113.428   53.122        65.03
 353.000   82.338  215.177        65.00
   2.563   94.614  148.236        64.99
 257.760   40.124   69.463        64.88
 345.645   71.856  130.710        64.86
 351.511   98.992  101.700        64.85
 192.205   52.066  331.040        64.82
 159.544   78.039  138.509        64.68
 102.560   50.336  334.049        64.66
  48.324   11.998   35.321        64.56
 323.662   77.925  286.119        64.55
 349.763   64.335  220.528        64.50
 318.906   39.653   72.340        64.31
 340.438   32.177  237.482        64.03
 357.160   58.752  202.844        63.72
 114.366  105.685   15.320        63.71
 346.666   86.773  205.714        63.65
 176.092  100.458  298.101        63.63
 198.442   72.989  210.067        63.56
 347.077    5.192  239.201        63.56
 348.934   46.463   59.203        63.38
 135.672  172.529   32.790        63.31
  24.453  105.780  351.554        62.75
 304.155   17.966   90.038        62.72
 210.202   27.665  296.847        62.50
 330.351   38.528  275.960        62.10
   6.766  114.822  173.348        62.06
  36.184  136.039   60.626        61.97
 340.309  149.061  264.030        61.96
 164.017   90.929  292.752        61.91
  11.088   48.492  122.766        61.88
  73.210  114.890   47.925        61.84
 166.129   67.158  253.750        61.71
  57.325   63.746  158.847        61.65
  45.743   22.449  217.770        61.50
  93.432   52.412  317.588        61.46
   3.455   86.532  102.611        61.00
 333.482   33.161  273.254        61.00
 168.870  128.006  133.301        60.75
   2.886   77.600  207.864        60.75
  11.801  129.127  296.691        60.71
 131.096    3.278  258.451        60.69
 352.826   82.377  232.766        60.59
 168.578   64.844  275.677        60.42
 164.154   42.576   32.653        60.42
 190.366   95.816  103.382        60.37
 172.576  157.610  138.243        60.06
   9.186   49.212  173.856        60.03
   6.156   54.812  210.065        59.96
   2.670  145.897  352.349        59.75
  95.070   40.165  339.549        59.75
 173.125  143.683  143.792        59.63
 169.088   56.468  232.291        59.31
 349.785  162.038  336.015        59.09
 354.816   94.879  150.638        59.00
 185.337   43.154  226.199        58.91
 116.515  109.725  306.938        58.57
 200.626   19.483  262.319        58.45
 276.456   35.099   83.010        58.25
 356.513   62.353  236.659        58.19
 320.973   83.939   96.604        58.16
  77.979   68.472  353.785        58.13
  82.665   68.455   51.264        58.09
 292.648  156.443  261.414        57.87
 181.193  100.553   80.486        57.75
 163.346  101.091  316.903        57.75
 342.996   44.296  242.182        57.60
 139.350  153.955   26.337        57.60
   1.395   75.644  219.827        57.50
   1.504   77.127  108.926        57.44
 355.824   92.416  205.973        57.32
 107.321  119.415   79.311        56.98
 197.628  128.196  154.013        56.93
 115.590   31.275  327.005        56.92
 352.455   92.814  258.231        56.54
 134.331   26.748  301.089        56.48
 171.162   69.431  129.078        56.26
  50.379  140.767   17.644        56.25
 256.236  154.697   33.341        55.94
 187.459   70.632  241.816        55.89
  64.193   61.345  130.281        55.78
  88.342  115.453   59.335        55.75
 173.631  106.513  108.499        55.62
 103.763   86.131   10.852        55.56
 263.349   62.140   23.287        55.50
 227.707  163.903  197.033        55.50
 348.478   66.830  247.803        55.38
 103.550  109.635   54.575        55.00
 324.294  120.711  256.007        54.96
 340.294   55.570  154.958        54.79
   2.914   95.813   95.005        54.75
 280.128   84.721   64.916        54.59
 350.816  101.543  127.324        54.48
 172.370  103.524  158.373        54.44
 350.427   75.636  283.968        54.08
  53.210   74.919   44.186        54.01
 170.325   59.383  279.815        53.88
 186.905  106.788  144.078        53.79
 172.582   91.350  294.208        53.75
 172.595  117.397  219.019        53.75
  69.273  104.708  353.650        53.50
 221.265   44.357  162.128        53.47
 291.427  107.384   76.721        53.34
 223.501  138.492  333.833        53.25
 169.179   64.710   97.307        53.18
 193.483   47.329  245.199        53.14
 192.547  111.854  162.913        53.08
 182.938  103.236  172.448        52.94
 320.902    2.232  124.235        52.86
  76.438  144.946  346.173        52.75
 346.430  118.302  275.516        52.69
  85.896  115.546   92.193        52.50
 164.835  115.874  142.441        52.33
 183.178   20.194  279.035        52.33
  80.092  124.600   92.116        52.30
  11.802  117.483  127.099        52.26
  66.385  145.300  356.731        52.15
 183.888   98.294  212.117        52.14
 352.763  119.188  288.714        52.12
 207.395  134.456  245.188        52.06
 171.168  119.049  159.380        51.83
 184.164  159.332  178.606        51.78
   9.964   63.946  241.830        51.75
  43.062   15.154  203.724        51.74
 237.954  151.269  173.195        51.56
  74.293   78.301  359.947        51.51
 349.658  152.833  288.096        51.50
  76.619  152.369   48.133        51.44
 302.718   52.592  156.257        51.39
 176.573   76.667  142.587        51.37
 344.973   97.344  268.466        51.37
 182.141   46.131   98.003        51.17
 343.007   87.522  244.753        51.00
  18.889  105.319  270.506        51.00
 293.977  107.204   77.908        50.93
  12.740   74.895   78.774        50.69
  53.000  120.156  336.045        50.65
  87.961  126.555   97.979        50.50
  63.240  143.025  352.783        50.31
  67.428   66.480  122.525        50.28
 149.693   36.488  115.256        50.25
 199.091   97.416  262.265        50.00
 171.760   85.609  261.847        49.98
 168.246  100.382   63.961        49.75
 165.868   79.973  289.700        49.70
 115.255  130.591  101.165        49.66
 163.779  119.892  166.270        49.63
 277.392  146.736  271.263        49.59
 274.149   60.288   42.339        49.56
 307.282  106.853  264.867        49.44
 302.295   51.663  354.786        49.31
 189.908  118.491  156.082        49.27
 172.548  103.363  109.897        49.25
 343.274   68.728  265.989        49.25
 185.558   87.173  196.192        48.91
  14.701  111.985  231.964        48.84
 259.526   49.584  317.310        48.64
 122.739   39.078   64.927        48.59
 163.740  143.158  146.696        48.51
  35.625  150.808  311.581        48.38
  90.093   95.454   72.634        48.37
 182.454  100.336   90.489        48.15
 350.824  117.327  223.908        48.06
 348.281  117.895  277.045        48.06
  75.875  124.847   77.606        47.81
 125.570   24.004  136.351        47.81
 275.998  172.645  201.583        47.69
 194.364   68.647  269.546        47.63
 336.657  102.921  113.145        47.63
 271.638   22.811  206.402        47.56
  62.129   83.744   51.710        47.53
 176.988  102.067  146.137        47.50
  10.839  154.812  322.277        47.30
 203.542  169.635  165.345        47.13
  71.309  156.853   24.193        47.06
  54.000   83.948   60.125        47.00
   9.124   19.600  123.512        47.00
 340.125   96.106  147.066        46.94
  19.127  102.274  336.275        46.93
  12.570   70.774  153.319        46.80
 359.430  171.560  313.216        46.80
 312.237   61.601   68.232        46.75
 316.961  114.169  118.658        46.70
 175.336   95.508   65.244        46.54
 333.682   96.241   96.906        46.50
 169.757  100.764   51.128        46.31
 160.117  151.143  128.924        45.85
 121.321  169.574   39.724        45.75
  63.864   83.956  157.870        45.69
 189.332  106.133  201.215        45.66
 318.771   78.856  277.603        45.53
 106.064   63.911   88.993        45.50
 278.726   39.900   83.151        45.50
  85.712  165.704   51.676        45.50
 255.320  136.730   40.404        45.44
  33.223   92.237  200.883        45.44
 255.743   76.732  316.353        45.36
 351.682   81.493  233.681        45.31
  97.627   41.842  288.668        45.27
 120.903  129.764  104.547        45.27
 190.957  115.931  284.883        45.26
  87.709  170.913   62.010        45.17
 351.900  114.751  100.193        44.87
 351.695   74.470  159.433        44.76
 173.938  143.163  150.651        44.75
 189.972   75.174  117.779        44.38
 118.172  173.149   91.953        44.35
 325.003   37.630  243.918        44.25
 221.805  105.947  248.174        44.13
 230.176  113.240  214.741        44.08
 226.625  146.364  206.584        44.04
 183.145   78.455  262.572        44.00
 140.998   36.096   97.071        43.88
 181.350   90.256  289.686        43.78
 349.317   76.275  223.039        43.66
 297.983  137.261  250.004        43.54
  80.568  120.210  275.558        43.50
 209.600   45.977  245.005        43.50
 169.254  120.687   88.471        43.41
 296.549  102.183   90.758        43.31
  13.698   47.370  136.966        43.22
 355.837   36.476  212.153        43.17
 172.891   77.174   83.910        42.75
 350.517   62.104  232.005        42.75
 341.295   83.403   75.854        42.75
   1.629   62.953  116.028        42.75
 169.263   81.395  273.613        42.75
 167.904   42.760   41.465        42.56
 172.264  152.804  263.473        42.47
   0.178   89.560   89.589        42.38
  81.060   95.634   91.636        42.35
 111.430  112.526   72.424        42.21
   4.037   77.839   78.317        42.02
  10.856  176.942   21.116        42.00
 213.363   98.730  211.962        42.00
  62.686  110.627   90.935        41.86
 201.930  151.579  162.750        41.81
 356.554   87.446  204.684        41.80
 253.045  118.402  359.967        41.72
  65.145  155.848   22.603        41.56
 335.192  101.131  241.119        41.50
   6.572   51.653  177.630        41.47
 352.573  103.520   70.927        41.41
 256.686   64.640   91.575        41.33
 177.109   67.797  286.358        41.27
 354.368   59.813  213.658        41.25
 162.968   97.904   52.571        41.23
 261.970   14.260  115.224        41.04
 332.820   68.137  108.310        41.00
 209.677   80.546  126.647        41.00
  38.316  153.117  312.329        40.98
 193.884   42.008  280.046        40.89
 191.955  148.073  271.910        40.84
 187.482  140.357  210.188        40.75
   1.626   76.228  157.034        40.69
 234.053   57.417  151.642        40.59
   7.071  113.718  234.154        40.56
  52.521   39.228  198.329        40.50
 168.069   79.511  240.257        40.33
 238.123  125.871  281.202        40.27
 136.486  154.678   78.668        40.26
 215.983  156.576  196.818        40.25
   5.052   96.758  111.344        39.97
 351.020   80.281  222.875        39.97
 350.434   74.843  188.413        39.95
 321.493   52.416   84.818        39.94
 181.677   13.415  201.529        39.88
 171.411   94.648  125.459        39.81
 187.493   91.376  179.086        39.75
 271.599   50.212  183.321        39.75
 181.613  104.347   96.916        39.75
 186.518  116.668  205.758        39.63
 213.973    8.097  167.972        39.62
 168.072  120.575  140.744        39.53
 298.382  112.746  268.837        39.50
 150.068  120.048   37.383        39.25
  78.759  102.663  355.361        39.23
 296.577   99.514  271.758        39.10
 180.474   54.733  267.062        39.04
 291.450  155.854  135.419        39.00
 325.250  157.258  296.133        38.81
 288.948   24.506  181.835        38.78
 339.612   77.590  102.445        38.75
 249.636  122.883  238.515        38.75
  90.329   65.526  359.788        38.66
 336.359  101.512   98.198        38.60
 209.097   66.353  213.408        38.59
 338.636   92.855  106.383        38.42
 182.143   85.716   65.239        38.34
 221.747   29.051  280.337        38.25
 181.630  129.796  177.517        38.25
 164.061   87.400  270.754        38.13
 183.498   91.041  290.830        38.04
  82.996   91.583   78.693        38.03
 243.756   71.219   65.658        38.00
  38.238  106.885   16.416        38.00
 116.943  155.560   91.537        38.00
 215.223   41.593  113.824        37.86
 191.560  170.455  163.042        37.79
 201.046   96.412  266.913        37.75
 188.317   70.947  268.373        37.75
  67.776   95.314   41.259        37.72
 114.748  148.968   76.073        37.71
 212.337  156.413  213.993        37.70
   4.073   65.061   55.705        37.53
 262.296  127.729   23.348        37.52
  53.082   77.198   77.740        37.37
  69.554  169.756   42.043        37.37
  78.443   79.873  177.235        37.25
 164.781  114.907  150.260        37.25
  36.732   68.160  154.307        37.24
 237.974   45.214  194.607        37.16
   1.869   51.530  227.762        37.06
   2.710  119.298  137.448        37.04
  17.037   25.303   75.093        37.01
 284.188  175.862  204.561        37.00
  82.355  127.391  328.483        37.00
 162.939  122.787  143.628        36.92
 177.379   72.438  255.708        36.92
 178.218   83.424  275.232        36.91
   4.149   77.634  177.045        36.87
  56.867  140.408  291.545        36.85
 351.943   80.451  144.706        36.81
 346.455  100.526  132.211        36.75
 259.314   74.778   67.243        36.54
 338.330   19.007   46.436        36.53
 110.185  151.385   20.517        36.50
 351.526   95.604  180.869        36.50
 345.879   67.887   72.277        36.50
  70.607  105.653   92.482        36.26
 285.104  151.173  253.271        36.17
   6.879  108.596  105.655        36.06
 183.815   51.368  224.072        35.93
   3.188   63.638  213.317        35.92
 268.555  161.104   33.713        35.92
 340.592  100.490  185.847        35.90
 276.290  122.014   60.026        35.88
 187.045  116.960  189.510        35.75
  11.811   64.885  238.342        35.75
 162.014  148.650  122.667        35.75
 256.481   66.383   30.511        35.75
  50.269   16.877  164.697        35.65
  43.942  119.620  356.712        35.59
  63.372   62.994   49.494        35.50
  21.673  163.794  300.492        35.50
  57.730   66.477  183.313        35.46
 179.016   88.002  267.572        35.32
 339.094   52.177  283.381        35.31
 136.701   31.030  138.112        35.25
 174.439   74.062   23.908        35.25
 304.043  116.450   88.056        35.08
 134.257   28.671  145.445        35.06
 189.548   64.337    7.299        35.00
 268.222   52.103  105.727        34.96
  75.957  125.864   47.929        34.92
   6.480   86.192  216.900        34.81
 203.956   71.782  165.755        34.75
  61.277   48.027  165.376        34.65
 258.829  130.390  241.034        34.31
 187.504   96.587   44.106        34.31
   5.325   39.126  217.266        34.11
   1.407   89.306  194.677        34.06
  14.446   72.393  212.364        34.00
 307.215   19.498   77.179        33.90
 321.588   89.540   88.012        33.81
   8.478   33.726  203.873        33.70
   2.656   89.588  212.256        33.69
 187.072   75.598  314.095        33.67
 343.727  107.259  227.950        33.62
 154.504   90.556  195.056        33.55
 259.263   38.616   55.084        33.45
 294.417   75.418   45.552        33.44
 151.057   17.339  229.039        33.42
   7.692   58.019   62.101        33.25
   4.836   79.272  219.787        33.20
 260.985  149.110  100.836        33.19
   0.206  113.346  143.621        33.17
  82.299  155.694    7.805        33.06
  84.444  129.650   81.402        33.03
 326.818   80.233  226.002        33.03
 284.658   95.723  106.961        32.96
 199.365  135.502  188.382        32.95
 136.603   22.803  282.738        32.95
  19.363   90.246  221.877        32.89
  66.294   10.339   16.515        32.76
  18.792  106.556  199.244        32.75
 332.807   74.568  225.447        32.52
 184.684  117.535  265.563        32.50
 330.546   82.103  251.864        32.50
 118.755  117.426   82.250        32.47
  76.415   74.802  357.446        32.25
 183.062   93.488  302.910        32.25
  50.372  146.963  354.928        32.22
 184.268   74.816  252.665        32.19
 355.345   80.476  233.628        32.13
  53.260  124.886   55.818        32.10
  19.894   79.242  201.348        32.01
 169.207   50.450  135.480        32.00
 137.161   77.344  140.503        32.00
 171.828   74.994   20.888        31.96
   1.349   65.114  213.412        31.93
 190.702  127.201  211.375        31.89
 349.167   31.388  263.685        31.87
 177.012   67.402   15.033        31.57
 354.397   92.780  217.633        31.50
  64.387   28.348    3.521        31.50
 195.366   43.475  270.493        31.39
  63.865   82.415  108.167        31.36
 330.334  129.394   96.372        31.25
  85.369   50.432  321.234        31.25
  56.307  136.049  333.971        30.98
 106.485   86.258  136.564        30.95
   8.191   97.811  308.343        30.94
   1.031   18.681  243.349        30.94
  17.209   61.030  220.359        30.81
 346.652   96.488  247.221        30.80
 177.156   78.380  247.706        30.80
 180.036   86.093  281.130        30.75
 340.162  133.538  269.238        30.75
 346.894   73.226  134.376        30.56
   8.305   86.811  207.627        30.50
 330.854   24.545  109.662        30.43
 158.302   77.764  257.698        30.38
   0.705   95.434  192.998        30.29
 358.935  147.376  270.039        30.25
  77.192   29.169  141.604        30.25
 359.762   80.658  217.269        30.16
  63.125   93.658  282.718        29.97
 193.406  147.736  164.963        29.91
 164.297   27.336  203.344        29.75
  95.678  140.151   82.565        29.75
 158.512   92.417  141.263        29.70
 244.388   15.965  199.712        29.68
   4.424   90.775  149.215        29.60
  50.772  130.136  355.511        29.56
 167.253   84.282   44.634        29.50
 145.101   74.672  259.629        29.50
 244.100   59.510    5.337        29.31
  72.218  104.004   24.009        29.25
 257.649   54.094   25.498        29.10
  18.800   85.256  207.356        29.04
 175.523  105.165  306.113        29.02
 344.460   79.015  196.703        28.95
 162.112  103.715   99.957        28.94
 341.161  104.541  122.184        28.94
 171.424  106.145  307.026        28.93
 111.133  115.006   69.185        28.90
 350.075  104.817  119.410        28.86
 108.951  132.360  296.993        28.84
 151.873   94.075  117.004        28.75
 204.204   96.782  196.614        28.66
  53.065   73.100   71.162        28.63
 168.061   90.663  274.845        28.59
 351.939  110.551  103.194        28.54
 244.096   93.812   15.383        28.50
 325.632   76.376  119.542        28.47
 255.737    4.862  255.039        28.46
 211.717  163.811  180.248        28.42
 248.327   77.034   45.483        28.34
 341.640   75.596  218.277        28.31
 163.997   83.340  288.657        28.31
 350.507   79.281   72.246        28.27
 197.305   21.411  245.286        28.25
 151.979  102.340  112.969        28.23
 176.715   86.019  148.710        28.22
 161.862   88.213  270.000        28.22
 289.913   68.203   36.518        28.19
  92.438  133.958   70.213        28.16
 319.512   62.617   65.953        28.06
 334.107  100.251  104.673        28.00
 236.995   30.862  215.453        28.00
 311.747   86.374  271.127        27.94
 248.046   69.673   10.317        27.84
 214.795  110.431  194.876        27.75
 109.052  147.887   84.857        27.75
  76.438   71.130  141.777        27.75
 143.402  129.974  109.194        27.75
 239.726  158.630  202.491        27.65
 335.275   84.789  239.881        27.50
 147.701  108.810  155.426        27.50
 185.540  102.644  171.735        27.50
 331.410   62.890  111.852        27.50
 187.780   54.408   14.630        27.50
 260.810  129.910   21.246        27.45
 112.324  159.825   39.734        27.45
 332.041   27.327  272.586        27.40
 247.600  123.364  241.115        27.38
 289.585   43.147  284.982        27.35
   8.275   62.405  168.402        27.31
 169.734   72.684   37.909        27.31
 273.264  141.212   52.865        27.31
 295.183  127.242   72.576        27.26
 165.738  113.712  106.781        27.25
 246.700   34.212  103.088        27.22
 172.659  108.704  345.723        27.18
 186.800  112.266  192.960        27.13
 184.715   81.981  283.963        27.09
  96.329    5.519  281.603        27.00
 347.387   60.843  203.685        26.99
  71.140  138.214   61.791        26.96
 178.551  111.477  166.869        26.93
 188.151   91.137  333.200        26.91
 183.470  108.414   88.898        26.81
 170.278  104.733  155.003        26.74
 357.186   87.958  202.947        26.70
 190.086  134.023  154.245        26.69
 266.150  146.640  247.377        26.66
 293.747   83.345   55.591        26.54
 113.342   87.344   91.500        26.54
 201.999  118.601  181.157        26.50
 218.721   71.998   44.625        26.50
 174.877   81.673  261.985        26.44
 192.611   80.857  307.263        26.44
 123.711   69.476  103.584        26.40
 188.268   73.262  304.893        26.38
  89.064   46.809  134.080        26.31
  85.032  105.675  331.204        26.25
 201.298   98.822  276.370        26.12
 130.450  148.734   22.455        26.12
 358.691   45.008  202.450        26.06
 344.526  101.276  269.610        26.06
 108.619   33.934  123.381        26.06
 263.504  143.543   31.398        26.06
 235.350   38.994  322.931        26.02
 167.817   21.300   93.856        26.00
 125.381  115.514   78.378        25.89
 174.486  110.400   79.059        25.75
 233.077   72.716  143.394        25.64
  86.950   71.318   16.781        25.62
 328.534   84.026  239.548        25.43
  47.198  133.591  310.310        25.33
 129.953   17.842  112.632        25.06
  29.001   67.672  157.569        25.06
 252.548  108.068   42.488        25.03
 182.962   84.720  213.121        25.01
  90.381  154.509  353.262        24.87
 308.695   34.923   43.928        24.81
  24.923   74.076  103.334        24.81
 350.527  105.718  236.133        24.80
 336.155   96.557   96.900        24.75
 165.323  117.153  133.000        24.75
 196.711   71.849  279.146        24.73
 175.881   47.451  118.168        24.73
  19.311   11.677   19.522        24.63
  17.271   57.937  197.136        24.62
 216.732  103.562  223.221        24.60
 318.982   44.365   51.978        24.59
 136.593  158.967  120.468        24.50
   6.327   97.114  112.281        24.50
 251.325  128.228    5.833        24.41
 152.143   20.822  116.100        24.41
 244.089  151.478   25.683        24.41
 233.375   19.530  102.091        24.27
 240.512   74.110  255.514        24.27
 213.772   58.691  102.271        24.25
  68.741  151.223   30.467        24.25
  73.700  100.070  315.600        24.25
 177.921  137.140  150.632        24.22
 265.183  131.181  255.652        24.19
 115.346  111.805   58.210        24.18
 346.259   69.486  244.515        24.10
  97.469   34.983   98.732        24.06
 338.605  100.041  112.521        24.00
 254.975  102.707  237.570        23.92
  92.694  163.697   75.136        23.85
 108.774   41.379  121.287        23.81
  67.857   65.761  351.791        23.76
 192.894   89.312  100.976        23.75
  29.204  140.337    4.012        23.72
 328.541  120.075  242.308        23.66
 198.903   77.686  220.793        23.61
   3.455   79.730   81.269        23.50
 195.279  134.867  284.393        23.44
 199.065   84.185   95.380        23.42
 313.614  130.148  105.011        23.38
 244.994  116.753   36.018        23.36
 172.137   99.014   85.118        23.26
 345.562   83.324  237.677        23.25
 348.585   66.373  230.804        23.13
  89.127   36.530  109.235        23.13
 185.553   92.646  134.072        23.09
 300.803  122.585   94.320        23.01
 135.842   92.958  264.595        23.00
   1.723   76.687  190.197        22.94
 169.797  120.457  159.276        22.88
 284.921  146.812   94.387        22.87
  10.629   64.888   70.572        22.87
 158.686   92.362  143.195        22.75
  41.591  170.262   16.136        22.73
 359.218   88.186  221.845        22.70
 260.510  107.605   62.761        22.70
   0.670  113.429  254.053        22.64
 183.673   14.293  199.735        22.59
 185.734   64.318  278.184        22.50
 275.275  123.443   81.263        22.47
 197.824  102.711  162.568        22.46
  38.529  153.709    0.807        22.38
 328.756  131.063  271.911        22.25
  95.465   83.218  313.022        22.17
  15.938  106.261   85.421        22.06
 232.920  168.305  204.625        22.06
 201.014  161.096  191.968        22.03
  80.143   36.204  149.378        22.00
 181.190   78.077  306.997        21.97
 166.360   36.964  335.663        21.87
  60.217  133.575  341.711        21.75
  45.596   36.321  340.022        21.50
 181.228  116.744   98.828        21.44
 174.829  156.078  152.716        21.35
 238.681  140.472  236.527        21.31
 358.475   79.757  201.423        21.28
  18.492   78.275  141.932        21.27
  29.592   67.664  128.721        21.26
 150.329   74.968  226.106        21.25
 329.135  104.912   72.891        21.25
 337.636  150.691  301.272        21.23
  71.820   70.581  142.983        21.16
  41.258   34.272  186.883        21.11
 351.179   45.328  220.666        21.00
 168.631   61.160  293.004        21.00
 330.311   89.413   84.976        21.00
 268.694   32.616   83.061        20.94
 122.425  107.767  314.164        20.93
 345.596   27.739   25.526        20.87
 242.723   78.086   25.765        20.75
 340.289  153.579  258.853        20.75
 138.366  117.580  111.749        20.63
 299.573   54.667   53.378        20.59
  78.114  111.119  254.986        20.45
 268.958  150.823  209.974        20.42
 114.039  154.588   88.947        20.37
 102.884  131.535   44.392        20.36
 230.153  121.986   44.616        20.31
 157.325   82.863  284.887        20.27
 358.476  111.702  286.270        20.26
 308.537   29.552   77.966        20.25
 193.844   63.177   53.179        20.25
 346.263   94.368  196.235        20.25
  10.804   72.390  227.207        20.17
 197.099   91.473  233.818        20.16
  69.671  175.919  340.746        20.05
 172.598  105.192  336.850        20.04
 179.810   64.950   44.466        20.03
 175.438   59.690  117.964        20.00
  37.646  158.089   19.205        19.97
 107.759   26.162  334.287        19.97
 359.327   73.328   74.226        19.96
 195.167   66.608  246.079        19.91
  16.678   72.749   86.568        19.83
  14.915  126.975   72.349        19.79
 195.199  114.017  155.478        19.78
 267.726   57.453  262.061        19.75
 359.984   75.861  190.542        19.75
 186.961  164.017   56.034        19.71
 213.171  142.475  299.241        19.68
 191.055   91.090  193.758        19.61
 169.242  177.080   82.961        19.58
 189.122  149.573  156.794        19.50
 175.354   57.431  272.467        19.50
 230.995  125.075  213.298        19.50
  54.598   65.357  134.516        19.48
 191.916  128.562  265.445        19.47
 162.139  107.038  107.619        19.46
 159.796  114.328  335.079        19.42
 346.440  119.277  162.764        19.34
 195.977   91.866  186.878        19.33
  10.764   70.433  234.520        19.25
 161.520   58.839   18.520        19.25
 184.821   82.616  227.710        19.25
 359.843   51.532   89.056        19.25
 184.374   95.228  335.050        19.25
 220.287  118.033  338.053        19.25
 201.549  153.853  180.691        19.24
 316.461   82.451  100.171        19.21
 295.704  148.186  104.175        19.19
  22.334   75.098   41.809        19.16
 210.217  116.205  319.349        19.16
 177.279   61.430  239.675        19.06
 349.585   73.160  180.959        19.03
 202.224   79.489  209.278        19.00
 195.396   41.822  234.487        18.98
 343.595   68.197   76.664        18.92
  55.686   59.870   10.244        18.87
  45.997   62.796  194.778        18.86
 186.523  137.882  134.117        18.81
  96.048  156.438   51.574        18.75
 182.596   87.347  200.158        18.75
  19.941    6.589   65.811        18.75
 349.834  104.672   91.607        18.73
 101.135  122.907   14.059        18.71
 284.606   60.640   46.956        18.69
 227.269  157.594  194.614        18.50
 136.585  100.261  110.434        18.50
 350.236   81.394  223.702        18.47
 244.259  163.395  220.045        18.41
 343.399   43.967  153.323        18.41
 348.816   49.332  211.588        18.30
 247.169   43.988  201.581        18.23
 142.152   24.154   13.355        18.22
 351.091   40.621   94.814        18.22
 121.093  107.681  325.442        18.12
 159.282  139.592  108.474        18.10
 107.531   91.666   38.809        18.06
 312.369  173.544  288.362        17.99
 179.685  120.151  213.370        17.94
 349.465  139.394  285.078        17.92
 319.100   63.497   65.750        17.91
 188.886   99.175   62.774        17.88
 170.814   80.635  165.800        17.88
 142.009   94.996  125.023        17.85
 342.709   92.497  206.411        17.81
 357.080   50.024   80.698        17.81
 103.803   38.604   75.000        17.77
 131.514   15.540  133.602        17.75
 168.787  102.501   85.841        17.75
 195.397  119.711  170.737        17.75
 329.047   95.729  208.270        17.74
 177.114  134.576  199.461        17.72
 195.717   67.270  297.697        17.69
 351.925   95.792  211.850        17.62
  96.613  132.922   71.739        17.60
 103.661   99.332   59.884        17.60
 241.725   85.210    4.576        17.56
 215.161   20.049  191.617        17.55
 130.102  121.206  310.433        17.54
  79.094   91.347  141.140        17.50
 201.660   10.720  239.610        17.50
 194.556   64.649  248.386        17.50
 173.445  157.823  289.267        17.50
 164.920  116.185  139.128        17.47
   4.915  103.375  165.990        17.42
 133.364   89.872  327.801        17.31
 134.561   27.447  346.899        17.29
 258.537   38.519  133.333        17.25
  11.175  118.110  237.286        17.25
 357.626  119.752  302.904        17.25
 186.952   85.707  305.936        17.19
 188.572  107.137  220.860        17.16
  18.427   80.031  180.529        17.16
 153.273   58.165  109.851        17.11
   2.086  166.656  348.249        17.11
 341.233  120.519  108.208        17.00
  73.872   75.820    3.985        16.99
  95.985  141.407   49.735        16.85
 243.486  176.455  197.734        16.82
 315.036  133.232  253.961        16.79
 193.188   72.222  286.766        16.78
  81.590  159.138  303.060        16.78
   5.591   65.307   46.880        16.75
 178.956   64.721  262.381        16.75
 186.069  121.135  129.108        16.75
 205.027   92.648  349.700        16.75
 104.661  140.839   70.800        16.75
 346.185  115.581  259.754        16.72
 162.100   79.149  121.398        16.72
 350.252   42.515  263.341        16.69
  50.845   75.981  141.913        16.66
 340.560   50.046  267.887        16.62
 239.381  167.827  215.710        16.56
 161.490   21.820  331.214        16.50
 348.796  162.705  287.032        16.50
 176.395   57.859  267.154        16.50
 161.844   68.365  280.012        16.50
 184.980   76.813  252.648        16.48
 284.564   39.282  323.748        16.38
 104.899   66.680   49.257        16.33
 339.507   43.832  250.069        16.31
  86.706   98.239  343.859        16.26
  10.551   67.316  171.196        16.26
 221.867  156.642  187.215        16.25
 181.589   77.979  150.930        16.25
  87.997   17.432  355.501        16.25
 217.219   93.328  321.531        16.25
 181.928   83.064  283.510        16.25
  29.623   71.425  165.679        16.25
 181.566   66.860  224.522        16.21
  51.835  113.246   96.699        16.20
 324.140   68.383  247.262        16.19
 160.934   80.535  309.987        16.15
 180.209   64.380  286.047        16.14
 354.417   80.106  198.499        16.09
 169.992  162.930  141.928        16.08
 178.427   23.079  227.290        16.03
  79.149  141.829   46.167        16.00
 154.730   88.525  274.677        16.00
 293.342  147.579   94.950        16.00
 237.789  134.430  202.666        16.00
   1.646   67.440  213.399        15.95
 180.976   72.049  317.009        15.93
   6.647  157.626  276.454        15.90
  11.369  126.225  272.819        15.81
 164.526   81.202  270.232        15.81
 182.528  157.651  182.316        15.81
 263.760   55.688   37.291        15.81
  10.169   64.422  180.541        15.72
 359.146   66.699  166.894        15.72
 152.477   75.217   99.614        15.68
 167.695  105.732  111.269        15.66
 245.026   69.057   41.341        15.66
 242.379   62.167   54.713        15.66
  16.137  122.921  248.356        15.66
  13.653  130.028  219.032        15.59
  31.765  164.336  340.756        15.56
 138.896  125.493  153.955        15.55
  60.738  106.956  282.267        15.51
 137.146  169.031   54.632        15.50
 193.352  169.939  155.986        15.50
 239.233   47.883    2.752        15.45
 349.984   96.198   97.640        15.45
 358.272   97.626   99.849        15.43
 353.322  139.474  319.043        15.25
 235.306  153.329  208.283        15.25
 176.753   93.638  320.669        15.25
 159.925  159.120  142.037        15.25
 330.672   98.375  254.295        15.25
  64.745   74.456   73.208        15.19
 350.583  110.810  136.416        15.17
 282.851   17.566   99.219        15.14
 256.413  129.367   72.668        15.11
   2.569   97.819  147.197        15.02
 145.545   96.310  121.696        15.01
 111.860   59.696   85.807        15.00
   6.437  145.563  268.932        15.00
 207.070   77.863  262.520        15.00
 248.258   75.765   89.896        15.00
  83.364  112.231   91.424        15.00
  36.083  159.628  301.780        14.94
 106.833   35.033   80.116        14.94
 334.146   65.086  263.415        14.89
 248.833  128.877   37.307        14.86
  23.353   89.241  127.984        14.85
 282.979  117.519   45.141        14.84
  24.929   94.642  179.897        14.77
  87.200  106.677   13.650        14.75
   4.331   71.730   90.166        14.75
   8.337  115.027  208.868        14.75
 283.962   78.220   71.014        14.70
 350.738   59.592  168.892        14.65
 222.872  161.561  190.477        14.64
 226.858   72.117  150.122        14.61
 201.288   87.316  198.676        14.56
   5.505   91.460  210.100        14.50
 155.376   63.672  260.437        14.44
 264.278   10.263  123.519        14.44
 334.573  151.894  267.515        14.44
 179.472   66.110    2.953        14.38
 234.034  107.263  288.857        14.36
  31.800   79.032  188.592        14.31
 333.559  154.174  199.073        14.30
  64.528  117.267  282.178        14.26
 284.946  149.735   74.279        14.25
 178.988  110.858  130.652        14.25
 357.718   89.846  219.854        14.25
 286.665  129.251   60.900        14.25
 162.230   52.876  241.662        14.25
 177.202   83.671  160.007        14.24
 115.971  113.074   85.084        14.10
 274.512   80.189   51.606        14.10
 172.581   65.234    9.576        14.06
  37.080   95.767   97.817        14.04
 196.536  174.818  154.162        14.03
 207.058   71.358  288.044        14.00
  24.433   76.018  198.921        14.00
 356.028   26.662  214.954        13.98
  61.899   60.276  128.801        13.96
 194.189   93.960  146.578        13.90
   0.215   87.153  155.902        13.76
  65.362  109.134  352.354        13.75
 160.301   84.251  269.323        13.75
 218.589   25.734  158.346        13.75
 171.240  149.218  138.292        13.75
  78.961  105.063   90.504        13.75
 270.729  168.975  244.457        13.73
 161.720   94.480  207.610        13.72
 158.151   18.079  286.729        13.69
   3.485  159.972  265.056        13.59
 329.830   95.680  228.991        13.58
 181.737  114.319  142.461        13.56
   5.416   90.901  205.456        13.55
 352.107   85.110  206.609        13.53
 331.484   61.247  295.703        13.50
  17.199   56.017  216.996        13.50
  21.218   99.156   12.806        13.50
  90.370  155.010  349.985        13.48
 323.776   36.229   91.697        13.44
 166.902   82.023  294.310        13.39
  16.313   72.643  223.765        13.37
 343.548  118.863  278.240        13.34
 186.907   60.519  218.743        13.29
  97.230  120.889  108.198        13.26
 352.543   96.639   60.826        13.25
   7.040   56.202  211.348        13.25
 327.221   17.909  130.749        13.23
  90.376  125.278  337.377        13.19
 343.947   55.925  256.392        13.18
  62.068   74.269   13.685        13.18
 350.625   70.361  215.039        13.12
 355.672   85.472  254.513        13.12
  27.626   74.378  157.373        13.08
  63.698   79.323   93.030        13.07
 116.345  119.069   72.477        13.06
 227.104  169.555  177.992        13.06
  58.501   71.267   15.117        13.03
  13.486   59.854  227.261        13.00
   6.071   89.325  200.419        13.00
 195.817    4.560   22.500        13.00
 102.979  117.673   87.876        13.00
 180.956   70.340  262.682        12.96
 192.789  129.802  146.893        12.95
 306.264   76.852  277.001        12.94
  16.389   87.833  102.725        12.91
 357.310   53.517  200.754        12.88
  92.912   84.088  320.271        12.75
  21.400  106.427    4.836        12.75
 102.275  110.691   53.342        12.75
 183.266   74.593  269.839        12.75
 348.160   85.243   83.714        12.72
 179.841   93.978  155.385        12.69
 355.211   46.935  189.512        12.66
 221.171   61.151  221.528        12.65
  52.521  103.479   78.194        12.63
 108.348  170.969   34.851        12.62
 255.426  131.368  250.980        12.59
 229.439   99.576   26.416        12.48
 173.766   85.588  260.570        12.44
 167.253  103.799  147.568        12.44
 344.966  130.256  121.041        12.38
 198.213   72.933  264.912        12.38
 292.646  127.780   42.264        12.37
 319.833  168.001  280.957        12.37
  35.855   67.268  205.703        12.34
 174.843   80.225  201.075        12.31
  99.272   78.551  123.599        12.29
 112.937  127.920  316.229        12.29
 228.390  166.596  207.008        12.24
 303.316  129.233  260.158        12.20
 115.826  122.543   58.696        12.18
 185.572   78.222   23.399        12.16
 236.045  112.122   51.720        12.12
 150.641  167.847   88.969        12.11
   0.366   99.884  115.484        12.09
 202.115   30.516  171.093        12.09
 157.964   68.571  287.816        12.08
 169.710  112.282  104.532        12.07
  12.474  104.425  200.242        12.00
 253.082  114.812   60.472        12.00
 100.616   62.229  291.136        12.00
 159.372   78.479  168.612        11.98
 189.867   88.229  145.603        11.96
  43.360  109.571   21.936        11.94
 300.506   27.098  297.162        11.88
  62.002   57.654  131.031        11.83
 118.033  101.507  325.547        11.80
 127.454   76.190  121.380        11.79
 177.506   89.734  325.201        11.75
  95.073  148.743   48.991        11.75
 172.486   82.343  299.000        11.75
 232.915  104.164    6.999        11.75
 182.834  112.783  194.603        11.75
 346.477   88.228  247.585        11.75
  30.460  131.918  264.765        11.71
 190.942  130.341  175.227        11.70
 356.235  114.492  122.486        11.69
 342.240  148.998  311.838        11.63
 209.732   40.737  210.315        11.61
 256.472  101.943   59.935        11.60
 345.584  121.800  289.382        11.59
 253.958   55.786  355.524        11.57
  35.882  149.458  348.204        11.56
 113.196   31.643  137.088        11.50
 198.461  166.606  165.404        11.50
 298.445   62.004   55.921        11.49
 178.508   71.907  256.526        11.48
 177.319   69.034  263.426        11.48
 187.140  100.539  102.531        11.46
 350.041   79.686  257.321        11.45
 208.379  148.811  174.890        11.43
 333.771  102.422  107.991        11.38
 238.777  159.578  209.939        11.37
  32.212  108.937   70.350        11.36
 239.246  132.534   41.467        11.36
 250.229  117.292   59.371        11.31
  22.479   17.639   12.624        11.31
 325.641   92.338  268.460        11.31
 179.826   75.248  283.620        11.31
 296.983   71.261   59.530        11.31
 174.280  140.351  159.248        11.28
 192.533   73.929  273.518        11.25
 262.090  147.096  235.941        11.25
 174.433   64.836    8.655        11.25
  55.142   70.486  134.883        11.25
  93.070   44.478  108.688        11.25
 355.582   83.507  232.398        11.22
 161.956   34.708   60.864        11.22
 263.109   51.028  321.288        11.14
   8.634  101.863    9.146        11.13
 132.143   80.656  100.808        11.09
 358.714   71.633  202.289        11.03
 230.615   61.671  337.237        11.00
  29.029   68.817  177.099        11.00
  97.851  139.713   64.934        11.00
 106.678  156.648   78.833        11.00
  23.016   30.916  355.151        10.97
  11.425   87.529  222.058        10.94
   6.832  109.750  159.364        10.91
 183.493   97.378   32.855        10.88
 154.973   98.928  169.888        10.81
 199.456   63.783  236.793        10.81
 109.654   57.893  291.199        10.77
 206.561  155.260  196.271        10.75
 171.767   76.644  290.932        10.75
  86.106  152.646  354.174        10.74
 177.076  160.745   20.885        10.71
 238.776   17.604  174.364        10.70
   4.876   69.852  199.887        10.64
 108.093  151.755   41.649        10.63
   7.573   58.772  179.657        10.63
 325.557  148.945  107.617        10.62
 125.302   48.843  307.648        10.59
  31.690   18.248  125.160        10.59
 170.320   97.269   95.214        10.57
  16.609   87.771  135.582        10.56
  62.976   58.514  171.504        10.56
  16.392  102.974  207.891        10.55
  12.989   79.105  215.369        10.55
 161.714  105.184  145.703        10.50
 312.107   64.785   68.248        10.50
 177.200   78.756  309.579        10.50
 183.907   49.699  339.440        10.50
 342.309   77.603  154.328        10.50
   7.130  112.070  175.263        10.50
 179.854  126.717  101.793        10.47
  64.394   66.847    0.455        10.41
 173.897  122.399  208.403        10.41
 186.110  101.979  102.331        10.34
  38.765   94.321  355.601        10.34
  79.933  126.270   53.156        10.32
 121.223  126.995   97.264        10.31
 185.790   98.525  158.120        10.30
 109.338   73.945  280.568        10.27
 170.091   63.796    0.057        10.25
  20.524  103.343  140.218        10.25
 214.690   58.097  254.888        10.25
 351.750   88.130  188.402        10.25
 355.151   61.365   58.559        10.21
 134.458  127.212   81.070        10.19
 325.372  117.158  115.277        10.19
 354.592   86.608  234.364        10.19
 280.216   59.779   77.150        10.18
 254.145  106.886   59.742        10.17
   6.993   93.109   95.850        10.15
 192.167  134.101  179.972        10.09
 118.832   55.294  282.411        10.09
 227.890  114.924   26.250        10.08
   7.080  111.273  173.991        10.06
  19.927  133.960  261.532        10.06
 184.174   83.770  173.992        10.05
  37.995  170.926  358.855        10.05
   3.514   55.523  217.694        10.03
 168.189   86.941  132.142        10.03
   4.599   22.987   90.468        10.00
 138.563   88.869  295.856        10.00
   9.936  110.682  191.770        10.00
 352.750   86.252  218.089        10.00
 163.917   40.781  236.808        10.00
  49.469   72.655  123.884         9.94
 342.888   30.781  232.043         9.91
 281.205   58.238   71.674         9.80
 118.885  126.354  131.259         9.78
 185.170  101.096  155.417         9.75
 278.792  118.207   71.013         9.75
 302.530  149.607  257.225         9.75
 318.715  111.873  237.190         9.75
 231.552   81.854  260.000         9.75
 353.684   86.489  263.132         9.75
 102.312   43.225  120.784         9.72
 223.594  152.523  185.965         9.68
 155.606  115.108  141.980         9.68
 182.246   80.207  288.895         9.67
 338.041  126.497  122.032         9.64
 147.158   35.593   84.142         9.62
 284.669  111.657   97.046         9.61
 343.677   76.304  209.535         9.61
  73.701  109.218  126.319         9.61
  12.357   98.109  271.017         9.59
 178.649   59.230  265.962         9.56
  16.268   40.662  197.260         9.53
 356.600   69.512  214.030         9.52
 359.245   41.649   81.625         9.50
 144.322  154.302   65.197         9.50
 349.219   71.471  228.216         9.50
 154.989  141.256  138.570         9.50
  16.518  108.129  190.765         9.50
 213.134   62.666  171.141         9.48
 152.719   63.976   69.904         9.46
 101.370   75.639  347.189         9.43
 138.464  130.190   76.558         9.41
 179.437   64.661  225.948         9.32
 135.965  148.181   91.443         9.30
 207.678  102.307  340.439         9.29
 126.674  122.782  315.970         9.26
 154.684  106.077  149.367         9.25
 356.695   94.025  100.113         9.25
  37.902  146.232  271.698         9.25
  14.480   63.158  220.394         9.25
 350.927   96.431   87.135         9.25
 337.051   62.211   82.563         9.25
 185.354   98.857  105.290         9.25
  18.031   21.581  239.506         9.20
 354.546   91.152   56.756         9.17
  33.963  162.880  350.287         9.16
  75.034  128.072    5.823         9.14
  76.352  151.971   53.215         9.12
 166.910   35.276  220.676         9.10
 320.300  147.233  284.726         9.10
 109.007  111.209  314.652         9.10
  17.554  141.321   19.453         9.07
 183.374   68.764  267.882         9.00
 167.831   98.937  303.686         9.00
 270.343   75.492   57.797         9.00
 165.077  103.529  104.588         8.98
 226.180   78.265   96.911         8.97
 186.467   91.205   67.661         8.94
 165.990   58.801  268.762         8.91
 333.756   68.226  255.257         8.87
 314.925   48.402  149.035         8.87
  58.766  143.105   51.552         8.86
 244.298  154.967  216.297         8.83
   6.841   73.204  200.533         8.81
 185.080   25.167  256.720         8.81
  13.114   86.715  216.141         8.75
 100.491   14.165  142.818         8.75
 249.105  155.485   13.936         8.75
   0.188  119.419  153.860         8.75
 318.516  163.025  229.388         8.75
 329.487  110.467  105.724         8.71
   4.152  149.960  352.455         8.69
 176.548   74.461  260.910         8.69
  71.211  120.749   47.977         8.56
 156.338  104.063  294.195         8.56
 248.516   80.709   67.381         8.56
  18.584  151.498  327.882         8.50
   0.355   91.107  218.015         8.50
 178.272  103.450   95.674         8.50
  34.931  127.123  338.675         8.50
 182.224   25.585  243.672         8.50
  12.519   58.884  140.660         8.49
  53.061   27.817  341.090         8.48
  59.291  153.589  341.410         8.41
 172.907  122.208  162.989         8.36
 228.579  163.593  201.476         8.33
 241.474  154.296  325.814         8.31
 143.583   86.723  208.645         8.31
 185.994  102.818  181.663         8.29
 173.286   67.368  149.888         8.28
 179.408   93.033  159.308         8.28
  89.397  107.799   59.870         8.25
 341.084   77.155  214.604         8.25
 336.217   89.343  288.794         8.25
 115.922  116.795   12.145         8.23
 111.592  153.053   58.052         8.20
  14.783    7.317   69.180         8.18
  24.724   91.890  191.508         8.17
 164.973   61.839  138.452         8.14
 288.739   52.158  295.120         8.13
 194.643   77.700   82.443         8.13
  62.774   63.750  112.754         8.10
  11.726   96.504   74.342         8.07
  30.759   82.253  143.212         8.04
   1.234   86.162  160.493         8.01
  74.227   75.763    5.097         8.00
 348.622  114.937  221.922         8.00
 114.310   29.048  141.810         8.00
  36.333   14.765  210.804         8.00
  25.503   94.456  217.357         8.00
  81.621  101.503  102.045         8.00
 317.594   90.240   68.065         8.00
  66.721   97.173  110.728         8.00
 314.108   21.635  142.080         8.00
  79.677  139.435  343.400         8.00
 328.015  101.772  250.602         7.97
  74.031   73.882  119.714         7.94
 211.309  151.498  172.572         7.93
 355.610  143.848  238.862         7.92
 289.829   71.463   89.087         7.91
 242.028  110.427  356.396         7.87
 188.765   58.848  241.944         7.83
 195.091   91.507  146.778         7.82
 186.952   65.236  248.085         7.81
  10.212  124.098  340.059         7.81
 357.832  127.443  133.791         7.81
 177.262  162.125  175.553         7.81
 161.660  115.520  321.716         7.78
 277.617  173.233  197.575         7.78
 178.691   85.473  277.874         7.77
 228.383   69.654  286.938         7.75
  28.522   65.842  151.269         7.75
 359.784   79.252   33.472         7.75
 325.562   80.213  231.861         7.75
 172.120  105.307   36.804         7.75
  84.073   68.024  330.672         7.75
  86.121  154.250   80.152         7.74
 179.451   63.275  251.273         7.74
 185.298   67.967  307.091         7.72
  48.194  106.145   70.615         7.72
 270.145  129.529  225.512         7.69
 135.697   77.656   80.723         7.69
 189.114  166.343  151.465         7.64
 171.986   17.037  319.995         7.62
 173.906   76.197  254.088         7.58
 178.018  131.168  214.228         7.56
 146.840   67.391  304.519         7.56
 349.329   83.660  232.389         7.56
 198.519   49.545  210.892         7.55
 118.925   86.148  280.292         7.53
 169.468   96.241   87.568         7.53
   1.668   64.808  198.900         7.50
 333.869   33.097  274.894         7.50
 180.901   69.374  251.153         7.50
 166.453  150.633  132.479         7.50
  56.503  135.251  334.842         7.48
 348.760   50.016   68.464         7.47
  90.139   40.280  136.913         7.41
  17.057  110.626  260.661         7.40
 302.598  117.728  254.152         7.39
   6.731  106.859  135.347         7.28
 197.336  102.621  247.811         7.25
  49.788   70.118   47.657         7.25
 167.038   73.605  271.712         7.25
 305.768   93.176   92.223         7.25
 355.887   92.811  134.232         7.25
 113.687  120.125  124.154         7.25
 153.756  145.597  138.434         7.25
 347.355   92.499  239.991         7.25
   7.868  155.632  289.400         7.25
  21.662   70.768  198.786         7.25
 172.305   99.499  163.973         7.22
 178.139  125.682  169.417         7.22
 338.406   69.378  192.662         7.22
 186.073   70.393  120.614         7.17
   9.379   92.217   94.893         7.16
 317.671   76.533   97.990         7.16
 186.479  151.094  152.864         7.13
 256.718   14.375  149.129         7.13
  37.578   84.400  349.687         7.12
 195.641  169.657  116.439         7.10
 131.057   74.629  103.221         7.10
 134.816   70.273  151.903         7.10
 138.199  115.174  116.507         7.00
 179.897   89.451  199.816         7.00
  12.414   99.450  203.938         7.00
 163.684   16.562  231.216         7.00
 190.177   96.130   93.512         7.00
 233.249   60.785  212.649         7.00
 318.147  116.603  206.405         6.98
  76.880  107.519   66.259         6.97
 188.582   37.418  217.101         6.95
 191.074  132.205  121.313         6.95
 188.286   80.559  244.049         6.91
  34.602  154.348  353.081         6.90
 324.679  147.416  108.634         6.88
  94.871   50.189  320.767         6.87
 181.961   80.519  302.532         6.87
 345.194  104.351  118.977         6.87
   8.216   74.684  136.376         6.81
 308.963   12.746  187.981         6.81
 355.985   93.292  153.082         6.81
 308.256   18.536   87.967         6.81
 347.973  119.735  191.879         6.80
 308.256  128.905   81.187         6.79
 120.855  119.464  126.099         6.75
  76.449  107.054  352.406         6.75
 148.660   85.647  273.214         6.75
 328.439   19.215  236.752         6.75
 132.910  130.518   97.364         6.75
 171.397  130.765  159.324         6.75
  39.605   18.900  172.633         6.75
 119.122  107.380   96.523         6.75
 121.420   56.649  128.635         6.71
 200.452   34.145   16.361         6.71
 281.320  123.443   92.352         6.69
 259.548   82.763   31.693         6.64
 159.586  105.494  288.685         6.60
 359.755  129.012  121.502         6.59
 171.937  128.117  179.911         6.59
 107.994   70.511   48.279         6.59
 298.137  137.016  120.533         6.58
 189.989  141.049  195.569         6.57
  27.307  168.896    7.255         6.54
 298.247  155.925  202.193         6.52
 184.231  144.105  155.434         6.51
 193.185   42.234   78.106         6.51
 181.949   55.505  323.510         6.50
  81.173  107.887   71.769         6.50
 107.817  152.115   73.410         6.50
 323.083   68.739  267.047         6.50
 344.010  160.704  302.044         6.50
 341.879  102.987  252.836         6.50
   4.671   97.892  147.423         6.50
 167.471   89.345  289.274         6.50
  10.625   92.219  218.151         6.50
 150.642   68.845  281.609         6.50
 301.367  146.150  269.481         6.50
 275.727  150.314  258.221         6.49
 278.240   46.014  338.996         6.47
 192.574  115.539  153.156         6.46
 204.946  106.317  210.937         6.45
 139.965  166.309  100.344         6.45
  92.895   74.240  358.928         6.45
 177.086   73.106  270.260         6.44
   8.916   84.119  139.639         6.41
  78.477   79.051  323.787         6.40
 187.945  106.638  111.043         6.39
 169.639   71.564  308.019         6.38
 194.860  100.281  191.731         6.34
   8.361   81.659  194.579         6.32
  35.960   25.243  210.655         6.31
 260.887  116.434  248.679         6.30
  71.480  150.661    4.688         6.30
 194.703   84.039  111.140         6.28
 115.187  119.733  120.292         6.26
 355.761  122.982  251.625         6.25
 118.160  157.675   94.259         6.25
  23.777   73.966  140.211         6.25
 176.103  112.302  132.679         6.25
 352.641   82.770  249.562         6.25
 289.186  132.050   68.331         6.25
  75.738  165.385   31.520         6.25
 212.969   66.805  255.961         6.25
 185.301   88.366  287.248         6.25
 353.038   69.048  241.438         6.25
 144.638  171.639  123.042         6.25
 165.773  121.053  336.571         6.25
 201.829  102.423  192.890         6.25
   9.945   78.789   77.451         6.23
 294.530  122.485   73.314         6.21
 181.878   88.055   51.373         6.21
  29.226   90.812  157.968         6.20
 299.235   90.507   73.891         6.19
 143.121  125.668  125.635         6.17
 175.792   70.217  277.838         6.13
 264.890   57.723   22.363         6.12
   9.471   84.365  103.066         6.09
 144.471  169.034   75.668         6.08
   8.815  159.473  215.180         6.08
  46.696   87.405   92.632         6.06
 357.059   90.968   30.697         6.06
   6.342   91.896  176.196         6.02
   3.623  145.217  272.542         6.00
 281.415   49.135  117.215         6.00
 179.163   91.233  156.969         6.00
 182.979   80.267  263.402         6.00
 175.511   95.425  106.707         6.00
  53.751  114.257  327.738         6.00
 355.176   85.190  243.748         6.00
 184.703  111.076  262.959         6.00
  11.989   78.324   33.388         6.00
   8.431  116.521  171.782         6.00
  91.554  136.124   81.300         6.00
  19.135   80.470  214.994         6.00
  61.758  100.842   51.200         6.00
 295.253   58.398   73.593         5.97
 359.755  168.558  322.593         5.94
 250.219   69.317   43.283         5.91
  98.481    4.425  120.059         5.90
  89.610  133.162   65.103         5.88
  38.455  159.565   21.152         5.88
  31.184   81.823  157.670         5.87
 340.693  104.657  191.870         5.86
 350.794   31.216  214.027         5.84
   2.972  153.642  271.275         5.84
 237.827   70.801   57.644         5.83
 207.552  103.090  231.602         5.80
 301.058  106.226  260.444         5.79
 147.840   64.667  306.367         5.75
 103.241  144.263   69.200         5.75
   9.583   79.594  108.456         5.75
 177.746   78.697   28.643         5.75
 268.921   63.866   20.285         5.75
 183.976   93.474   76.004         5.75
 128.418   28.164  262.556         5.75
 345.898  125.891  183.023         5.75
 266.647  169.932  259.453         5.74
 111.360   74.010  343.759         5.69
 195.564   90.033  200.855         5.68
  89.334  150.194   46.241         5.68
 126.417   94.378  312.360         5.66
   0.032   98.222  251.872         5.66
 256.691  137.863  341.522         5.64
 174.967   90.301  285.846         5.64
 112.312  125.461   67.597         5.60
 160.388   87.516  176.060         5.59
 355.430  142.276  262.924         5.59
 192.563   60.064  248.935         5.56
 142.216  140.250  135.335         5.56
 345.777   41.028  216.838         5.53
 195.315  111.215  212.001         5.50
 357.863   87.142  102.069         5.50
  45.861   24.766  153.645         5.50
 192.525   77.090  304.468         5.50
 216.946  136.808  342.749         5.50
  10.249   89.043  194.699         5.50
 261.504   28.777  118.820         5.50
   6.142   98.243  172.314         5.50
 184.032  108.411   84.689         5.47
 346.827   69.884  134.200         5.47
 107.717   79.923  346.035         5.46
  11.297  109.383  136.394         5.46
  28.502  113.362  353.930         5.45
 321.073   94.168  147.224         5.41
 180.601   74.544  124.883         5.41
 119.111   84.478  314.996         5.40
 268.612  145.903   82.877         5.39
 235.047   45.213  142.417         5.39
 256.771   54.365   26.057         5.34
   3.209   42.558  172.671         5.33
 173.343  159.714  141.975         5.31
 199.874   77.211  174.957         5.31
 248.286   63.511   74.066         5.31
 155.421  142.613  159.868         5.30
 111.553   95.160  296.697         5.29
 177.022   94.730   81.253         5.25
 322.709   86.085  277.178         5.25
 136.315  116.323  115.984         5.25
 198.942  118.988  313.073         5.25
 220.489  118.896  220.152         5.25
 167.429  151.449  132.282         5.25
 188.439   76.142   34.767         5.25
 180.481  160.652  175.824         5.25
  24.341  152.884  318.937         5.24
 110.620   49.333   71.154         5.22
  13.303  115.808  345.801         5.19
 180.973   21.302  213.486         5.19
 159.470   69.555  263.168         5.19
 292.998  119.978   66.468         5.13
 320.653  166.236  286.848         5.12
  94.340   88.528  332.620         5.12
 316.776   83.200  228.329         5.12
  89.365   87.604  338.364         5.07
 166.075  135.789  143.244         5.06
 337.469   98.838  128.554         5.06
 350.287   85.569  252.885         5.06
 268.547   23.269  119.071         5.06
 242.678   71.883  238.987         5.05
 344.459   86.097   84.655         5.05
  31.719  123.398   50.362         5.02
 318.765  139.757   94.174         5.00
 211.854   57.931  342.761         5.00
 242.103   24.051  159.582         5.00
 187.170  121.529  147.680         5.00
 203.955   53.892  316.387         5.00
 349.596   92.653  143.733         5.00
 327.905  130.446  246.771         5.00
  14.217   54.411  173.472         5.00
 211.285   96.301  211.461         5.00
 155.004  102.670  167.430         5.00
  13.404  131.772  257.577         5.00
 272.183  124.074   25.775         5.00
 164.605   79.565  111.460         5.00
 218.239   37.398   14.119         4.98
 202.904  136.633  303.347         4.97
  17.862   66.183  206.842         4.96
 261.169  121.131   52.583         4.95
 285.613   47.164  296.707         4.94
  40.502   36.073  157.477         4.94
   0.035  155.956  313.007         4.93
   4.341  106.133  135.297         4.91
 349.937   32.113  216.053         4.89
 136.376   54.456  150.991         4.88
 180.406   98.976   87.342         4.88
  93.576   42.648  172.668         4.86
 166.265  136.266  132.621         4.85
 289.166   17.372   50.329         4.85
 345.443   40.526  206.515         4.83
 267.511   31.093   89.543         4.81
  96.745  172.654   13.257         4.81
 295.712   71.565  276.994         4.81
  19.373   80.462  143.871         4.80
 175.269  100.922  171.512         4.76
 272.644   40.969   99.853         4.75
  33.013   84.691   67.416         4.75
 174.257  144.444  118.587         4.75
 345.883   83.419  135.105         4.75
 196.680   92.618  233.969         4.75
  14.798   67.838   28.764         4.75
 211.601   97.641  210.887         4.75
  14.225   64.097  180.104         4.75
  24.491  102.724  142.479         4.75
 186.631  100.201  185.855         4.75
 356.181  134.509  257.785         4.75
 204.362   90.405  357.255         4.75
  59.699  152.142  328.163         4.75
 359.985   20.718   63.142         4.75
 350.417  125.276  229.094         4.75
  13.799  100.498   98.993         4.75
 206.654  155.094  176.732         4.75
 185.131   70.323   69.389         4.74
 357.936  110.918  277.811         4.71
 350.035   39.888   45.755         4.71
 108.919   83.428  284.459         4.70
 330.039  104.107  103.228         4.70
  16.536   65.492  190.357         4.69
 291.059  135.376   63.589         4.67
 193.570  102.678  142.274         4.67
 242.438  122.945  231.659         4.66
 255.986  111.672   67.343         4.64
 187.550   80.391  227.782         4.63
 359.896   54.017  231.871         4.62
 180.947   66.456  247.829         4.59
 165.001   79.958  229.950         4.59
 169.138  100.473  169.616         4.57
 132.531  125.369   89.511         4.56
 302.509  149.882  258.976         4.56
 350.666   68.345  119.111         4.56
   9.372   88.282  121.020         4.55
 150.677  106.819  116.032         4.53
 186.217  130.966  151.316         4.51
 209.934   76.226  124.257         4.50
 108.192  114.429   83.877         4.50
   5.261   51.538  202.703         4.50
 358.842   51.881   94.593         4.50
 174.648   27.489    3.756         4.50
 164.189   98.997  176.398         4.50
 349.283   29.563   91.853         4.50
 345.974  103.981  188.982         4.50
 184.538   69.067  268.414         4.50
 191.755   92.467  165.284         4.49
 225.028   67.878  316.690         4.48
   0.574   14.065  202.433         4.47
 158.947  159.121  127.305         4.45
  31.889   85.107   43.633         4.44
 347.994   84.760  265.677         4.44
   7.563   32.482  210.168         4.41
   5.137  111.133  284.072         4.40
 187.993  109.721  148.868         4.40
 351.883   77.797  187.907         4.39
  16.526    8.260   25.882         4.38
 263.406  113.627   60.805         4.36
 102.005   28.046  153.804         4.35
 234.964   27.146  141.059         4.34
 280.294   82.337   65.707         4.33
 353.583   99.747  211.646         4.32
 294.539   63.012   70.219         4.31
 131.756   47.534  314.090         4.31
  64.978  107.109   24.524         4.29
 194.761  111.524  148.060         4.29
   3.917  113.630   75.178         4.28
 219.994   65.429  100.333         4.27
  31.740   97.617   30.835         4.26
  98.431   29.937  343.340         4.25
   2.953   94.306  163.705         4.25
 189.121   75.843  215.640         4.25
 161.214  106.186  332.682         4.25
 207.412  105.736  192.382         4.25
 166.634   50.280  269.364         4.25
 194.018  116.359  121.099         4.25
  74.807   89.170   19.063         4.25
 186.274   86.068  206.039         4.25
 292.205   83.877   85.527         4.25
 350.482   56.462  212.737         4.25
 283.688   69.273   76.430         4.25
 344.530   60.685  218.215         4.25
   2.618  113.334   84.879         4.23
  71.426   66.812   83.286         4.20
 359.477   86.390  249.978         4.19
  28.908   82.762  150.411         4.18
 223.693  153.730  351.216         4.17
 272.576  122.749   40.823         4.17
  25.640   32.145  207.280         4.16
 193.303   60.254  273.115         4.16
 345.700   31.966  254.307         4.14
   9.122   65.769  220.389         4.13
 328.193   32.549  216.579         4.12
 182.653  122.115  179.019         4.12
 156.509   86.378  255.401         4.12
 311.902   13.376  118.759         4.10
  13.585   56.651  199.958         4.08
  17.316  161.293  286.901         4.08
 310.070   91.337  197.997         4.06
 190.208   64.012  313.408         4.06
 166.375   92.191  284.729         4.06
 307.504   18.892   76.344         4.06
 225.279   27.822  136.670         4.06
 182.517   59.123  224.254         4.05
 171.876   91.738  279.661         4.03
 127.548   74.767  120.558         4.03
  91.519   51.217  117.881         4.03
 279.997   70.619   43.980         4.00
 170.878  105.280  112.633         4.00
 195.821  106.889  139.161         4.00
 100.807  162.332   16.997         4.00
 358.928  147.069  328.684         4.00
 309.388   44.726   73.261         4.00
   5.689   65.431  227.334         4.00
  55.720  116.909  313.566         4.00
 123.180    2.401   24.068         4.00
 156.418   25.252  344.986         3.98
 205.094   81.448  166.120         3.95
  97.924   55.216    2.097         3.93
 147.961  171.876  115.127         3.93
 347.927   81.733  209.123         3.91
 154.665   78.077  248.602         3.87
 163.575  111.975  141.687         3.83
 175.286   61.391  309.830         3.83
   5.096  119.479   53.194         3.83
 216.370   98.805  181.877         3.82
 119.975  156.457   89.906         3.81
 117.083   40.507  119.809         3.81
 327.227   73.935   82.302         3.81
   4.160   65.831  233.368         3.81
 306.246   42.196  284.960         3.80
 259.826  126.148  256.275         3.80
 352.309   83.288  272.871         3.78
 339.988   44.513  266.650         3.78
 170.734   41.534   30.367         3.78
 297.239  132.192  277.780         3.76
 326.535  156.682  300.155         3.75
 133.180   83.900  295.444         3.75
 106.653  142.151   98.238         3.75
  12.042   88.124  218.795         3.75
  38.013  158.723  348.340         3.75
 280.803  161.185   44.066         3.75
 172.356  145.090  174.663         3.75
 194.019   95.246   89.473         3.75
 242.189   62.760  327.264         3.75
 189.323  113.734  141.299         3.75
 302.702   11.440   71.408         3.75
 142.721   86.148  298.599         3.75
 260.746  149.253  228.702         3.75
 170.302   66.499  257.108         3.75
 198.080   80.810  230.841         3.75
  46.801  145.568    4.866         3.73
 338.000  135.150  119.620         3.73
  47.301  124.001   81.216         3.71
 113.784  107.533  152.648         3.71
 119.654   67.333  289.890         3.70
   6.394   21.717  233.405         3.69
 358.957   70.592  151.612         3.68
 233.548  132.999  224.239         3.67
 359.042   20.763   61.476         3.67
  60.709   71.538    6.774         3.66
 286.291   54.005   91.412         3.64
 173.903  113.671  207.261         3.64
 194.139   97.898  258.230         3.63
 180.148  104.319    5.882         3.63
 212.880   46.859  153.377         3.62
 244.600   63.049   89.613         3.61
 347.747   31.744  221.676         3.59
 280.147   95.691   18.701         3.57
 347.375  115.230  173.529         3.56
  59.836  110.145  297.206         3.56
 289.488  167.603  118.094         3.56
 354.193  106.551  276.366         3.56
 337.486   75.531  113.404         3.56
  10.786  161.454  319.161         3.56
 156.138  160.102   22.771         3.56
  75.831  146.565   77.087         3.52
  16.529   70.995  196.073         3.51
 232.610  166.010  209.294         3.50
 264.817  113.619   30.376         3.50
 191.649   73.370  258.720         3.50
   6.632  104.894  115.175         3.50
  12.619   53.129   74.475         3.50
 185.880   66.926  254.629         3.50
  12.377  119.327  236.115         3.50
 254.722  108.642   20.473         3.50
 180.463  105.745  146.905         3.50
 197.540   82.141  317.330         3.50
 146.210   56.797   94.455         3.44
 174.100   90.488  266.500         3.44
 305.613   90.681  253.807         3.44
 131.185  125.666   56.067         3.44
  12.718   90.065  111.665         3.44
 119.423   60.845  168.935         3.41
 146.044   40.515   16.452         3.41
 230.784   68.478  285.671         3.41
 270.306   33.003  188.910         3.38
  41.414  107.735   16.587         3.37
  13.917  115.917  263.111         3.36
 103.982   78.458   98.736         3.34
 160.881   56.861  139.233         3.31
 185.040   65.494  222.788         3.31
 204.947   52.731  262.026         3.31
  82.514   52.086   11.154         3.30
 102.692  143.764    7.658         3.26
 253.765  119.661   19.571         3.25
   8.529   85.769  158.090         3.25
 248.560   62.690   75.839         3.25
  55.440   85.308  310.473         3.25
 348.996   77.915  120.682         3.25
 359.698   76.730  252.733         3.25
 358.297  115.052  274.551         3.25
 145.794  157.061  112.115         3.25
 256.031   85.991   43.749         3.25
 142.910   69.127  303.250         3.25
 124.605   65.549  297.361         3.25
 186.496   72.045  226.431         3.25
  17.093   81.798  140.226         3.25
 221.702  155.266  207.076         3.25
  21.823   89.042  208.304         3.25
 171.083  103.059   95.157         3.25
 359.056   94.162  137.778         3.25
 359.074    7.890  216.261         3.24
 233.265  160.013  208.182         3.23
  89.265   25.730  313.106         3.19
 322.095   90.231  265.825         3.19
 329.307  162.018  305.908         3.19
 314.299   33.917   70.246         3.16
 185.300   53.345  334.196         3.16
 109.417   99.196  313.761         3.14
 188.802  112.176  101.356         3.14
   0.076   77.076  211.751         3.13
 186.074   90.634   94.086         3.13
 156.221   84.991  298.172         3.10
 137.955   88.423  116.537         3.09
 243.004  125.205  219.028         3.09
 313.357   60.634  253.946         3.06
   1.669  148.807  281.476         3.06
 156.387   89.140  286.907         3.06
 176.333   63.805  252.309         3.06
 178.248   62.462  271.642         3.06
 113.801   56.175  287.303         3.06
 273.388  144.706  236.687         3.05
 305.613   44.486  121.980         3.05
 315.563   41.123   16.276         3.04
 300.228  124.064  261.021         3.04
  18.346   76.796  174.877         3.03
 192.671   59.081  200.222         3.02
  10.430  106.473  259.667         3.02
 193.808   50.845   67.927         3.01
 201.654  115.414  195.929         3.00
 181.197  120.797  123.321         3.00
 177.509  100.769   51.216         3.00
 342.052   87.650  248.335         3.00
 342.686   59.171  237.900         3.00
 108.965  119.062   72.377         3.00
  64.892  111.442   48.390         3.00
 258.962   11.875  178.397         3.00
  33.098  102.267  108.822         3.00
 131.985  158.162  114.874         3.00
 160.111   64.844  136.371         3.00
 118.813  169.393   99.765         3.00
  11.133  128.231  313.120         3.00
 223.926  106.700  276.934         2.98
  39.527  100.226  122.616         2.97
 184.342  139.333  195.193         2.96
 148.256  104.439  307.160         2.94
 228.543   97.770  126.112         2.94
 193.630  147.976  189.681         2.94
 311.427  150.511  256.638         2.92
  86.222   34.531  185.074         2.91
  23.381  102.600  113.692         2.89
 347.615   74.662  240.538         2.88
  41.832   98.046  297.066         2.88
 272.653  147.298  255.057         2.88
 239.072   77.491   33.535         2.87
  73.192  122.080  335.647         2.85
 188.819   87.480  297.578         2.84
  19.982   40.089  179.131         2.83
 247.931   65.644  279.714         2.82
  77.135   54.006  348.874         2.81
   2.251   92.480  250.261         2.81
 187.723  102.036   93.957         2.81
 219.159   27.209  196.175         2.80
   5.112  112.297   70.981         2.80
 201.857  105.104  296.229         2.76
 174.894  152.294  154.486         2.75
 314.517  151.562  268.047         2.75
 293.641   44.173   57.934         2.75
 119.743  109.109  331.656         2.75
  14.239   20.934  158.788         2.75
  89.290   49.722  135.803         2.75
 119.082   21.357  150.381         2.75
 121.826  111.715  126.824         2.75
 194.795   95.186  223.128         2.75
 244.578  161.456  219.680         2.75
 176.974  106.723   89.720         2.75
  29.483   73.328  221.357         2.75
 157.627   77.287  282.912         2.75
  11.922  124.207  354.032         2.75
 113.494   49.869   71.157         2.74
 141.523  117.872  320.678         2.73
 323.089   77.483  314.989         2.73
 346.720  165.253  298.074         2.73
 219.576  106.420  285.210         2.73
 295.612   82.144  272.923         2.72
 186.797  108.041  146.130         2.69
 346.747   52.056   29.009         2.69
  71.328   54.242  336.975         2.69
  14.340  127.567  200.323         2.69
 173.971   82.506  304.165         2.68
  67.794  101.773  269.271         2.63
  10.606  107.873  285.586         2.63
 137.612  128.709  154.288         2.63
 181.833   67.267  271.114         2.62
  38.262   94.736  183.801         2.61
  99.271   74.262  313.839         2.60
 167.948  115.366  338.414         2.59
  12.024   38.799   15.275         2.56
 352.000   77.595  177.692         2.56
 172.817  108.357  109.078         2.56
  41.961  159.851  353.684         2.56
 101.722  117.661  357.232         2.55
 195.263   60.391  241.602         2.53
 286.209  141.782  220.764         2.53
 212.365   77.024  304.239         2.52
  76.635  119.568    2.362         2.51
  10.421  154.862  324.077         2.50
   5.384  156.091  353.677         2.50
 181.791  117.705  129.605         2.50
  51.366   63.778  169.485         2.50
 330.624   61.987  143.323         2.50
 200.567   52.680  153.593         2.50
 333.131   29.853  271.553         2.50
   4.904  110.734  150.834         2.50
   8.843   87.650  203.808         2.50
   0.408   65.235  229.741         2.50
 170.466  104.366  299.504         2.50
 158.958  120.051  119.098         2.50
 207.976   44.625  167.671         2.50
 185.534   25.001  243.657         2.50
 246.173  149.977  213.002         2.50
 192.731   63.215  250.589         2.50
   7.001   44.290  129.793         2.50
 348.829  126.653   84.871         2.49
 312.715  105.598   84.718         2.47
 286.315   27.870   68.073         2.47
 186.090   94.672  318.049         2.47
  10.967  118.075  291.746         2.45
  92.354  146.581  330.669         2.45
  41.830  100.005  336.737         2.45
 164.721   68.711    9.482         2.45
   0.742  120.289  158.637         2.44
 174.722   89.423  276.441         2.43
 258.439   52.799  197.420         2.41
 279.294  139.742  241.224         2.38
 192.678   96.915  194.540         2.38
 315.567  117.594   96.594         2.38
  46.557  126.509   23.127         2.37
 153.247   45.551  359.793         2.36
 232.717  107.936  236.542         2.34
   2.310   87.456  102.922         2.34
 133.333  170.806   41.572         2.34
  33.035  138.841    7.377         2.33
  89.091  125.381  334.191         2.32
 178.215   86.218  143.895         2.31
 212.112   69.486  212.873         2.31
  20.249   85.254  117.348         2.31
 310.291  135.946  243.643         2.31
 273.090  177.800  239.100         2.31
  79.370   57.338  125.034         2.31
  42.075  109.584   76.217         2.31
  16.932   97.048   47.060         2.31
  78.837   83.131   60.210         2.30
  99.129   71.013  100.851         2.29
 202.998   42.279   32.686         2.28
   2.585  128.517  325.708         2.28
 358.078   42.961   99.943         2.27
 347.819   38.096  106.877         2.25
  65.823   25.275  151.200         2.25
   8.073  113.485  101.863         2.25
 345.433   99.169  242.516         2.25
 192.669   41.603  197.118         2.25
 172.992    7.028  270.091         2.25
 177.716  106.901  328.294         2.25
 144.015  156.699  109.050         2.25
  52.060  114.861  268.049         2.25
 351.680   24.417   56.115         2.25
 151.414  171.613  129.362         2.25
  57.213  118.253  332.185         2.25
 188.044   37.719  218.877         2.25
   0.700  145.609  330.833         2.25
 153.835  106.308  343.941         2.25
  26.056  136.681  309.463         2.25
 224.401   72.698   67.639         2.25
   2.293  154.231  353.335         2.25
  12.189  133.873  282.724         2.25
 302.304   56.109  318.983         2.23
 296.609   52.240   91.243         2.23
 215.043   78.068  102.058         2.22
 113.606   29.757  290.121         2.20
 159.322   37.541  282.823         2.19
 193.685   91.503  331.631         2.19
 250.673   88.895  349.050         2.19
  49.138   46.586   64.378         2.18
 156.036   81.092  259.051         2.18
 298.375   73.212   78.549         2.14
 165.777   77.280  298.523         2.13
  12.904   81.620   45.019         2.13
 164.338  107.263  167.674         2.13
  10.377  102.962  217.165         2.12
  82.239   55.692   55.625         2.09
 249.571  148.597  342.326         2.08
 101.036   39.454   88.289         2.07
 226.402   75.388  237.684         2.06
 334.162  115.232  258.092         2.06
  11.615   92.242  202.021         2.06
  58.286   61.265  143.779         2.06
 327.180   25.106   38.737         2.06
 184.118  160.684  147.565         2.06
 290.388  115.107   74.470         2.06
 260.196  157.641  220.026         2.05
  73.469  114.062  283.834         2.04
 336.817  150.121  312.462         2.04
 118.471   70.433   44.381         2.02
 291.596   99.321   28.460         2.01
 221.237   69.673  105.782         2.00
  92.418  153.591   46.768         2.00
  66.450   14.539  166.542         2.00
 346.149  154.875  320.123         2.00
 234.717  100.469  253.769         2.00
   8.627   85.669  194.038         2.00
 101.563  136.746  297.020         2.00
 148.184  109.801  151.315         2.00
  74.116   60.715    0.438         2.00
  67.159   85.924   23.913         2.00
 133.878  151.658  107.636         2.00
 233.967  112.872  346.755         2.00
   5.708  110.500  178.530         2.00
 148.566  108.052  294.826         2.00
 180.503   97.379  309.453         2.00
 235.867   61.074  208.254         2.00
 345.591   99.088  266.305         2.00
 178.193   92.290  167.548         2.00
 165.151  151.035  131.877         2.00
 191.291   52.958  291.382         2.00
  77.225  148.130   24.926         2.00
 317.156  106.359   88.459         2.00
 355.366  155.732  262.714         2.00
 343.178  103.507  125.674         1.99
  27.597   82.697  121.734         1.99
 191.057   90.522   42.385         1.98
 120.769   97.676  324.854         1.98
 351.033   71.987  182.190         1.97
  60.019  119.281  348.868         1.96
  64.405   32.486  140.007         1.96
  11.423   79.271  118.203         1.95
 299.556   71.353   95.049         1.94
 191.922  105.791  116.408         1.94
 195.752  134.776  184.572         1.93
  73.597  137.531  342.462         1.93
 270.414   17.787  177.432         1.91
 113.303   86.299   34.165         1.91
 105.937   44.936  113.465         1.90
 302.734   40.866  144.813         1.90
  41.998   41.548   24.882         1.90
 319.373  146.616   98.666         1.89
   3.014  123.895  258.164         1.89
 211.293  106.516  351.663         1.89
 219.140  162.889  200.848         1.88
 253.546   72.170   71.875         1.88
   7.587   90.464  176.355         1.88
 228.825   97.705  238.440         1.88
 329.060   97.338   91.600         1.88
 168.905   67.189  242.566         1.88
 217.344   69.836  224.926         1.87
 172.478   98.938   99.649         1.87
 353.576  101.667  238.931         1.87
  99.371  135.258    6.590         1.86
  68.405  109.792   49.198         1.86
 140.943   81.288  277.947         1.86
 107.789  171.391  119.500         1.85
 281.243   29.529  168.204         1.81
  72.312   21.831   22.680         1.81
 126.725  103.724  117.058         1.81
 347.917   98.703  122.248         1.81
 178.704   42.764  249.273         1.81
 117.124   77.897  345.873         1.80
 356.301   93.635  100.069         1.79
  98.547  109.496  300.059         1.79
 122.031   96.291  289.432         1.79
 164.136   93.889  142.279         1.78
  56.552  114.244  255.741         1.78
 337.601  142.682  147.426         1.78
 171.823   97.221   63.818         1.78
 309.527  124.781  261.944         1.77
 219.305   66.019   98.444         1.76
 221.958   94.025  344.979         1.76
  30.703   28.229  222.188         1.75
  30.941  123.611  346.993         1.75
  71.403  114.079   84.761         1.75
 257.081   53.675   40.237         1.75
  10.340   69.195  232.918         1.75
 159.439  109.373  342.247         1.75
   6.407   68.412  200.408         1.75
  81.117  148.221   86.504         1.75
 232.152  163.280  205.814         1.75
 181.351   92.676   81.022         1.75
 195.999   95.624  211.139         1.75
  99.211  157.057   49.474         1.75
 206.653  135.074  192.193         1.75
 198.367   97.632  200.516         1.75
 258.030  117.512   52.381         1.75
 318.580   93.073  243.237         1.75
  16.438  156.230  328.970         1.75
   7.551   87.306  194.191         1.75
 169.906   99.731   93.371         1.75
   8.444  113.894  142.696         1.75
  32.649   58.454  151.763         1.75
  12.744  116.759  126.693         1.75
 132.635  110.751  298.451         1.75
 192.207  132.282  250.622         1.75
  22.307   53.405  185.268         1.75
 351.902  122.002  134.331         1.75
 272.318   36.466  322.141         1.75
 128.786   85.461  284.419         1.74
 108.591  133.311   92.795         1.74
  16.796  131.118  264.113         1.73
 112.472   64.073  306.397         1.73
 100.587  120.259  323.452         1.73
 183.720   87.500  328.276         1.72
  10.298  113.555  158.035         1.72
 210.339   84.300  281.249         1.71
 335.357  106.625  244.276         1.70
 283.299  142.224  244.002         1.69
 206.179   45.819  241.531         1.69
 240.341   52.931  226.195         1.67
 338.543  121.327  190.615         1.66
  59.110   24.575  167.052         1.66
 293.553  108.348  272.919         1.65
  17.435   88.766  176.701         1.65
 249.915   68.765   71.014         1.64
 214.422  150.239  172.739         1.63
   0.261   51.774   65.585         1.62
 108.971   98.055  156.164         1.62
 134.080   53.809   92.197         1.61
 156.087   56.693   72.481         1.59
  80.974   84.016   96.040         1.59
 199.386   65.742  267.126         1.59
 289.096   73.107   68.260         1.58
   3.293  115.072  243.898         1.58
 120.941  165.429   51.293         1.56
 356.314   19.895   64.493         1.56
 177.254  118.469  204.681         1.56
  69.544   17.054  193.179         1.56
 138.458   79.463   98.384         1.56
  46.916   72.499  146.526         1.55
 333.204  106.921  103.721         1.55
 355.190   67.469  258.693         1.55
 325.757  140.711  282.882         1.55
  41.617   48.189  147.066         1.55
  96.577  155.105   74.859         1.55
 227.810   66.973  245.970         1.54
 132.473   47.200  294.975         1.53
  10.300  118.043  200.581         1.51
 274.105  146.519   60.719         1.51
 285.618  130.779   62.867         1.51
 345.107   95.686  207.374         1.50
 162.416   32.003  117.607         1.50
  64.118   73.084  140.601         1.50
 138.572   86.945  297.045         1.50
 186.817   95.332  211.856         1.50
 160.750  153.196  149.253         1.50
 151.035   21.304  115.759         1.50
  13.467   67.774  113.818         1.50
 203.995   70.151  188.291         1.50
 166.507  100.551  297.754         1.50
 320.148   14.293  112.336         1.50
   8.944   83.722  287.741         1.50
 146.065   85.600  115.834         1.50
 296.354  151.919  251.439         1.50
 218.702  142.536  355.209         1.50
 129.070   80.657  110.583         1.50
   7.597  160.262  287.591         1.50
  73.103   88.787   18.970         1.50
 191.440   97.002  227.424         1.50
   7.825   66.351  231.386         1.50
  20.392  158.441  330.701         1.50
 347.506   99.711  238.865         1.50
  95.137   94.379  131.513         1.50
   4.507   85.381  115.935         1.50
 317.827   78.745  278.432         1.50
  82.280  155.425   31.892         1.50
 349.843   24.868   57.624         1.50
 342.978   64.950   83.169         1.50
  18.658  107.052  257.283         1.50
 214.629  103.991  298.150         1.50
 170.926   49.130  287.169         1.50
   2.524  144.013  327.289         1.50
 259.652   86.959   36.933         1.50
 351.307  165.221  307.467         1.50
 351.149  143.577  305.965         1.50
  38.589  116.537  346.903         1.50
  55.835   14.601  154.746         1.50
  83.600   67.030  109.810         1.49
   8.210  115.995  140.338         1.49
   5.587   24.427  179.656         1.49
 280.660   46.154  314.216         1.48
 221.833   78.144  269.980         1.47
 182.770   57.904   99.750         1.47
  19.866   39.313   60.587         1.46
 134.520   93.845  285.851         1.46
 130.092  171.052   51.589         1.44
 125.448  133.085  318.721         1.44
   0.680  145.619  330.090         1.44
   3.971   87.426  177.129         1.44
  35.207   31.164   56.178         1.44
 301.383  107.478  274.323         1.43
 140.503  111.369  348.859         1.42
 186.707   49.540  282.462         1.41
 103.300   73.855  106.809         1.40
 169.137  119.161  207.929         1.39
  46.664   72.727  169.686         1.38
 236.877   69.397  336.703         1.37
  99.937  114.216   66.917         1.37
 193.565  111.312  151.646         1.36
 191.261   73.447  270.342         1.36
 136.883   67.209   91.898         1.36
  15.671   98.026  177.611         1.35
 223.743  163.385  207.102         1.34
   8.838   84.157  190.520         1.34
  55.238   71.370   25.226         1.34
  31.518   17.029  185.899         1.32
 191.088   93.127  206.928         1.31
 339.533   52.010  227.253         1.31
 107.061  162.716   79.924         1.31
  11.169  127.461  242.820         1.31
 284.812  143.873  219.928         1.31
 100.570   87.170   73.621         1.31
 211.788   52.810  120.147         1.30
 100.563  111.277   77.352         1.30
 106.390   52.864  293.950         1.30
 293.214  142.514  251.730         1.30
 263.919   43.796  102.800         1.30
 229.787  101.499   31.831         1.27
   9.391   84.360  195.111         1.27
 185.430   72.187  269.428         1.25
 337.764   66.458   79.381         1.25
 106.965   96.152  331.111         1.25
 115.038  112.394  306.089         1.25
 222.834  144.379  202.498         1.25
  34.633  138.740  340.773         1.25
 194.876   65.115  249.442         1.25
 306.091   58.302   16.899         1.25
 225.292   68.337   71.327         1.25
 220.632   76.509  343.850         1.25
 341.882   96.447   64.132         1.25
  56.092   86.343    8.149         1.25
  22.095  107.926  285.779         1.25
 157.808  163.172  120.320         1.25
  45.317  128.192   63.645         1.25
 221.708   74.127  162.666         1.25
 158.573   67.754  272.258         1.25
 210.275   57.468  194.110         1.25
  45.007  154.898  329.973         1.25
 131.476   45.472  115.979         1.25
  78.387   94.775   24.072         1.25
 138.070   79.058  295.913         1.25
 298.788   24.533  265.801         1.25
 200.343   63.383   54.537         1.25
 125.165  164.153   89.175         1.25
   2.996  148.410  266.349         1.25
 322.528   89.266   79.210         1.25
  65.940  115.015  316.759         1.25
 125.231   18.918  141.944         1.25
 198.664   98.356  201.182         1.25
  35.282   73.945  152.784         1.25
 320.405  117.075  274.477         1.25
  20.061  158.037  332.346         1.25
 173.561  114.108  155.003         1.25
  41.509   80.222   89.119         1.25
 358.397  144.971  254.638         1.25
  22.246   91.884   81.732         1.25
 156.717   74.955  289.445         1.25
  11.649  116.758  139.071         1.25
 352.488   75.248  114.731         1.25
 185.742   67.360   14.454         1.25
  52.027   19.210   30.189         1.25
 160.610   36.289  228.050         1.25
 186.629  108.556  114.014         1.25
  15.343  130.069  106.177         1.25
 244.610   96.543   21.903         1.25
 257.719   16.739  206.657         1.25
 104.923   71.561  128.894         1.25
 263.410   31.338  210.202         1.25
   2.190   59.121  210.539         1.25
  98.592   94.200   31.921         1.25
 266.491   40.312  131.163         1.24
 128.763   41.671  321.547         1.24
 318.546   42.703  159.561         1.24
 115.907   57.576  323.005         1.24
 189.104   61.425    2.355         1.23
 203.189  129.971  328.971         1.22
  18.553  150.282  333.717         1.22
 276.546  147.081   51.547         1.21
  26.366  134.949  304.894         1.21
 215.963   79.602  268.460         1.21
 290.716  179.721  255.015         1.20
  65.585   85.956  338.876         1.20
 158.490   39.744  293.580         1.20
 214.113  156.009  198.396         1.19
 104.476  131.362   40.795         1.19
  40.005  112.160  106.227         1.18
 195.459   61.405  232.966         1.17
 355.690   44.758  235.754         1.16
 304.267  141.630  262.746         1.15
   7.314  101.107  154.328         1.15
 107.369  159.297   67.295         1.15
 294.785  117.098   46.933         1.15
 110.118   24.800  109.816         1.15
 349.885  153.316  255.586         1.15
  93.071  152.036   33.792         1.15
  42.127   83.161   71.798         1.15
  94.018  132.402  330.030         1.14
 133.790  143.145  127.049         1.13
 273.978   52.878   93.129         1.13
 209.780   57.060  162.025         1.13
 351.563   78.998  140.553         1.13
  31.701  107.752  338.820         1.12
 187.851   48.437  248.771         1.12
  36.714    1.765   72.444         1.12
 358.403  137.308  227.583         1.12
 306.173   88.019   73.905         1.11
 283.954   59.650   38.097         1.11
  57.644   45.524  139.430         1.10
 209.428   61.525  289.459         1.10
 212.672  130.408  200.681         1.09
 356.257  136.983  256.232         1.09
   1.069   98.826  263.220         1.09
  13.236   38.246    0.592         1.09
 199.483   64.332  254.521         1.08
 274.258  129.349   58.241         1.07
  84.741   95.128  129.100         1.07
 115.148   57.741   78.180         1.06
 153.540   77.291  309.405         1.06
 115.628  112.696  321.672         1.06
 155.254  119.357   64.350         1.06
   1.313  125.713  141.699         1.06
 225.165   66.172   96.781         1.06
 216.921   56.794  182.212         1.06
   1.505   34.055  166.596         1.06
 355.749  100.756   66.892         1.06
 131.884  140.130  132.884         1.05
 334.624   12.608  205.894         1.05
 135.938  105.826  102.794         1.05
  55.339   89.566  176.448         1.05
 106.138   79.933   51.828         1.03
  90.877   34.582  144.482         1.03
 335.269   67.242  214.975         1.03
 214.779   66.425  227.187         1.03
  66.597   44.917  173.639         1.02
  12.962   73.102   95.967         1.02
 232.144   70.821  327.945         1.02
 336.736   67.580  247.234         1.01
  20.554   93.192   57.398         1.00
 298.469  111.054  258.016         1.00
 343.361   77.295  242.106         1.00
  60.720  141.425   53.567         1.00
 309.223   30.412   78.524         1.00
 327.690  105.160  277.685         1.00
 212.938   72.529  210.552         1.00
 172.267  112.694   93.502         1.00
  87.255   66.342  352.713         1.00
  55.784   98.031  355.388         1.00
 264.807  130.234   37.076         1.00
 182.501   24.704  188.034         1.00
 213.328   80.085  208.238         1.00
 343.529   70.560  195.319         1.00
 171.197   84.105  270.037         1.00
 223.457   85.768  258.183         1.00
  94.966    3.005  168.285         1.00
   7.835  154.120  290.842         1.00
 358.289  151.716  335.045         1.00
 283.605  110.774   79.731         1.00
   1.576   66.520  230.496         1.00
  20.570  157.324  322.088         1.00
  12.592   66.058  208.512         1.00
  47.419  122.831   18.323         1.00
 193.304   62.188  250.233         1.00
  13.550  113.705  139.329         1.00
 316.056   88.146   96.386         1.00
   3.889   90.110  223.143         1.00
 164.830  148.658  132.647         1.00
 153.654  149.726  147.983         1.00
  95.872  170.811   24.945         1.00
   4.814   84.607  269.401         1.00
   5.642  110.131  150.545         1.00
 234.822   51.406  147.974         1.00
 197.806   73.667   12.008         1.00
  13.501   66.384  209.447         1.00
 158.121   73.867  284.715         1.00
 108.369   68.484  333.738         1.00
 314.318   63.074  243.457         1.00
  50.026   60.840  110.673         1.00
 161.084   75.390  288.537         1.00
   4.690   29.030  203.857         1.00
 194.312   63.480  192.717         1.00
 210.233  157.469  174.924         1.00
 356.854   93.287  216.099         1.00
 213.271   17.610  252.293         1.00
 193.019  113.529  151.550         1.00
 346.252   75.827   75.792         1.00
 308.346   89.568   87.214         1.00
 242.880   31.506  209.479         1.00
 186.011  122.601  147.782         1.00
 344.815   88.134  129.203         1.00
   5.925   47.275  194.721         1.00
  26.813  134.433    9.926         1.00
 147.008  107.357  336.809         1.00
  44.635   92.588  275.934         1.00
 354.675   77.278   80.400         1.00
  10.516  126.930   89.646         1.00
 178.830   52.558  249.402         1.00
 255.063   57.864    3.244         1.00
 194.530  113.236  150.813         1.00
 171.694   70.578   14.001         1.00
 315.031   32.174   70.202         1.00
 189.394   68.011  253.648         1.00
 199.459   68.808  267.781         1.00
 173.768   68.323  308.068         1.00
  40.627  103.786   16.400         1.00
 345.499   84.383  251.987         1.00
  14.941   66.629   85.358         1.00
 328.441  161.790  304.157         1.00
 299.418   22.974   85.849         1.00
 159.007  118.008  156.794         1.00
 359.044   54.287  231.697         1.00
 233.793   57.681  204.111         1.00
   4.065   89.130  104.620         1.00
 140.808   89.295  295.899         1.00
 357.930   82.791  199.951         1.00
  37.432   22.187    0.115         1.00
 182.415   26.563  246.119         1.00
 242.564   62.728  351.693         1.00
  87.233  149.476   93.763         1.00
 102.301   53.591  116.440         1.00
 193.721   64.221  344.430         1.00
 166.265   82.562  294.572         1.00
 208.854   99.609  173.030         1.00
  75.590   92.353  311.840         1.00
  26.003   45.592  168.610         1.00
 305.415   61.229  228.804         0.98
  42.805  118.484  119.168         0.98
  17.702  103.210  145.087         0.98
  10.182  133.754  282.224         0.98
  92.334   68.250  349.364         0.98
 215.073  114.480  322.115         0.97
 255.174  112.518   14.980         0.97
 252.537   48.355   43.580         0.96
  50.430   78.007   82.320         0.96
 214.955   32.744  135.469         0.95
  28.658   55.071  170.878         0.95
  68.280   99.032   90.454         0.94
 237.718   36.745  129.306         0.94
 105.479   82.119  338.064         0.94
 312.569   48.227  253.941         0.93
 302.556   78.762   88.750         0.92
 115.183  133.532  317.109         0.92
 148.997   50.472  246.417         0.92
 132.850   66.755  157.767         0.90
 208.089   75.270  247.835         0.89
  83.574   93.794  113.633         0.89
  42.600   55.473  127.048         0.89
  63.590   71.773  132.697         0.89
  32.088   51.283  157.266         0.88
   7.975  113.984  345.457         0.88
  16.276   79.465   45.730         0.88
 189.389   69.795  121.028         0.88
  56.937   77.156   33.469         0.88
 155.957  102.078  149.323         0.88
 119.002  134.300   88.601         0.88
 112.086   91.959   64.596         0.88
  51.201   25.804   39.618         0.87
 349.737   55.486  213.957         0.87
 166.789   89.901  209.557         0.87
 127.129  134.278   89.375         0.87
 256.999  118.688   13.715         0.87
  61.967  134.674   51.565         0.87
 210.425   35.591  182.838         0.87
 176.549   78.503  280.422         0.87
  96.069  144.765  296.645         0.87
 222.033   28.961  241.869         0.86
 171.514  114.338  116.986         0.86
 173.432  115.178   94.938         0.86
 326.429  151.718  280.642         0.85
  78.272   81.753  309.655         0.85
   6.697   90.794  137.051         0.85
 169.512  105.947  112.714         0.85
 260.638  135.079  285.874         0.85
 277.832   55.440   86.197         0.85
 125.411   57.365   60.011         0.84
 182.506   75.203  243.450         0.84
  67.919   31.768  158.920         0.84
  91.612   40.020  180.811         0.83
 220.919   90.607  273.058         0.83
 176.137  112.948  150.065         0.82
 285.116  119.186    8.032         0.82
   3.378  123.647  270.616         0.81
  30.517  159.328  353.582         0.81
  20.103  107.280  259.189         0.81
 306.708   43.535  109.917         0.81
 262.959  144.253  348.701         0.80
  38.563  122.714   83.510         0.80
 198.171   79.877    5.591         0.80
 117.720    9.823  281.007         0.79
 105.582   32.326  330.450         0.79
 179.646   86.582  181.326         0.79
 263.305   15.001   78.871         0.79
   1.216  140.452  263.163         0.79
 195.961  104.807  278.508         0.79
 352.039  135.662  292.831         0.78
 183.219  125.550  137.723         0.78
 347.849  152.301  273.597         0.78
 357.878  114.701  140.208         0.78
 177.942   88.901  164.950         0.78
  11.151  120.309  178.484         0.77
   2.162  123.045  276.214         0.77
 239.838   52.845  306.201         0.76
 300.400  152.671  271.724         0.75
 300.506  152.838  272.123         0.75
 190.453   65.866   81.475         0.75
 129.648   96.188  334.025         0.75
  43.986  110.620  305.564         0.75
 189.027   57.733  271.625         0.75
 184.813  159.827  177.967         0.75
  37.846  126.267  311.066         0.75
 150.184  100.423  309.439         0.75
 179.276   89.269  198.235         0.75
 136.365   62.106  140.972         0.75
 238.174   62.472  207.550         0.75
 342.212   71.079  227.042         0.75
 163.051   16.877  241.901         0.75
 190.742   90.673   81.144         0.75
 115.371  115.545  299.250         0.75
 325.439   92.894  123.423         0.75
  47.507   70.428  106.832         0.75
  17.247   88.269  186.027         0.75
 302.513  122.970   79.085         0.75
  54.716  103.896   65.461         0.75
 216.130  135.688  180.604         0.75
 213.753   52.162  223.689         0.75
 162.274  104.799  145.292         0.75
  37.044  109.095  259.209         0.75
   9.212  121.022  246.750         0.75
  19.413   63.008  210.486         0.75
 201.365   22.480  275.446         0.75
 329.674   79.344   50.938         0.75
  28.945  118.281  279.893         0.75
 170.391   96.511  128.573         0.75
 186.546   88.538  196.966         0.75
 211.416   95.551  331.894         0.75
 237.518  122.494  221.321         0.75
 357.479   59.681  186.690         0.75
 238.003   58.790  349.836         0.75
  24.303  125.425  322.511         0.75
  28.644   90.255  214.385         0.75
  42.399  129.269  315.009         0.75
 168.191   63.960   41.331         0.75
  74.149  108.211   49.314         0.75
 325.624  131.531  126.402         0.75
 357.717   36.588   89.088         0.75
 181.006   58.131  233.478         0.75
 345.601   62.440  227.936         0.75
 337.800   74.016   89.745         0.75
 134.904  151.536  109.192         0.75
 257.056  113.986   72.709         0.75
 188.920   76.366   34.158         0.75
  57.202   35.978  205.327         0.75
 273.549   61.128   77.546         0.75
 238.411   46.848  145.328         0.75
  16.341  109.958  117.803         0.75
 264.866   68.580    2.553         0.75
 357.448  130.763  242.361         0.75
 150.858   68.598  131.944         0.75
 200.503   67.136  269.412         0.75
  78.107   95.697   24.688         0.75
 351.572  138.013  290.107         0.75
 196.834   66.225  192.531         0.75
 165.800   24.786  312.641         0.75
 228.240   87.810  255.491         0.75
  95.413  155.010   48.461         0.75
  35.627   84.158  145.925         0.75
 237.930   62.306  207.634         0.75
 151.422  164.191  114.734         0.75
 180.697  130.883  188.681         0.75
   1.121   52.715  228.141         0.75
 180.151   86.176  287.189         0.75
 174.864   91.958  286.412         0.75
  16.114  129.866  316.010         0.75
 317.183   48.724  283.797         0.75
  14.833  115.886  174.535         0.75
  91.987  144.702   31.337         0.75
 301.514   24.905   39.600         0.75
 269.062   58.075   81.630         0.75
   6.492  102.084  196.102         0.75
  31.416   83.381  208.540         0.75
 219.560   81.575   74.618         0.75
 217.652   32.247  209.192         0.75
  92.221  142.848   67.915         0.75
 352.464   24.370  235.507         0.75
   7.828   65.429  171.726         0.75
  71.867   48.582   31.957         0.75
 218.504   73.870  278.598         0.75
 285.009   16.201  291.210         0.75
  46.310   96.723  109.464         0.75
 125.731   29.231  277.083         0.75
 163.906  105.457  144.276         0.75
  26.121  149.886  343.951         0.75
  36.594   86.605  168.437         0.75
  71.271  156.067   46.283         0.75
  91.285  108.278  309.774         0.74
 309.282  150.372  133.089         0.74
  67.835   87.864  115.897         0.74
  74.169   74.369   11.780         0.73
   4.412   87.433  148.229         0.73
 188.439   76.536   90.494         0.73
  96.563   76.516   45.215         0.73
  67.208  112.672  138.555         0.73
 290.634  156.168  245.890         0.72
 180.466   99.988  153.198         0.72
  84.977   47.547  139.242         0.72
  79.829   73.860   31.824         0.72
 246.102   54.868  197.128         0.72
 185.021  162.521  181.498         0.72
 132.782   82.097  100.809         0.71
  77.538   71.229  120.968         0.71
  96.635   77.627   38.499         0.71
 318.115   63.420   71.472         0.71
 235.175  106.768  257.840         0.69
 213.685  102.318   58.096         0.69
 208.143  150.094  192.691         0.69
 187.365  101.807  338.460         0.69
 259.203   53.697  334.788         0.69
 305.132  132.260  227.894         0.69
 274.384   49.228  341.278         0.69
  19.599  151.282  354.994         0.67
 350.377  136.610  125.270         0.67
 165.399  110.065   85.908         0.66
 193.812  157.991  155.870         0.66
  31.574  114.198  304.460         0.66
   1.401   63.942   85.448         0.65
 156.166  102.270  145.155         0.65
 103.179   33.922  121.181         0.65
  30.043   78.769  124.629         0.64
 236.731  166.149  203.206         0.64
  73.362   94.190  323.713         0.64
   0.248   53.431  118.067         0.64
 178.933   66.269  126.289         0.64
 111.215   84.430  164.400         0.63
 213.695   81.273  133.643         0.63
 357.387  110.755  273.134         0.63
 305.693  121.308   78.254         0.62
 259.695    2.308  180.516         0.62
 235.376  100.741  344.612         0.61
  30.864  104.809   81.668         0.61
 293.774   84.575   90.873         0.61
 343.410   67.306   39.422         0.60
 216.578   76.915  210.126         0.60
 326.859  108.154  108.516         0.59
  49.230   71.092   42.027         0.59
 197.095  103.031  139.788         0.59
 240.589  101.840  234.253         0.59
  49.970  105.635  294.335         0.59
 328.266   16.771  164.924         0.59
 219.202  141.517  190.855         0.59
 123.783  131.171  326.139         0.59
 253.235   48.120  110.691         0.59
 316.376   18.756  256.242         0.59
  38.437   67.325  177.344         0.59
 207.755   85.979  265.244         0.58
 221.925  106.677  282.020         0.58
 168.069  121.348   96.580         0.58
 144.064   69.574  326.063         0.58
 143.778   96.649  162.929         0.58
 216.768   51.747  174.575         0.57
  37.064   32.439  142.955         0.56
  16.875  113.013  135.217         0.56
 315.500  114.195   97.473         0.56
   0.539   54.554  213.556         0.56
  97.388   72.447  350.479         0.56
 293.594   57.677   79.156         0.56
 190.561  138.162  175.683         0.56
  78.809  105.485   67.884         0.56
 103.191   59.449  348.052         0.56
 320.046  105.663   88.675         0.56
  28.090   72.030   60.183         0.56
  46.715   98.925   66.476         0.55
 156.330   95.922  328.221         0.55
 290.437  159.219  253.051         0.55
  75.153    4.165  359.646         0.54
 266.079   21.516  209.169         0.54
 102.471   84.415  273.183         0.54
 325.046   73.104   68.758         0.54
 194.037   58.511  231.252         0.54
  39.094   58.386   67.293         0.53
 152.916   52.490  234.808         0.53
 196.705   86.908   46.722         0.52
 164.121  134.390   92.072         0.52
  16.682  165.101  305.245         0.52
 319.228   59.410  275.702         0.51
 328.649  111.256  128.934         0.51
  14.230   89.796   51.316         0.51
 297.300  132.903   40.179         0.51
 237.351   67.791  285.650         0.50
  10.305   53.756   75.855         0.50
 206.715   74.686  193.622         0.50
  23.581  108.254  352.479         0.50
  60.288  141.632   53.484         0.50
 309.861   33.788   77.104         0.50
 185.592  112.614  188.068         0.50
 305.911   10.844  135.414         0.50
 356.349   68.872  245.030         0.50
 234.992   98.616  251.960         0.50
 349.053  123.631  144.527         0.50
  33.540  163.206  347.345         0.50
 160.251   87.580  332.899         0.50
 161.806  152.514  150.207         0.50
 250.083  128.868    0.977         0.50
  33.221   71.289   68.406         0.50
 308.987   35.143   79.176         0.50
 183.661   89.883   76.838         0.50
 226.911  112.657  246.846         0.50
   0.589  121.010  287.035         0.50
  54.542   67.394   12.362         0.50
 330.346  149.393  286.524         0.50
  10.963  117.734   80.562         0.50
 269.427   30.820   63.021         0.50
 110.369  128.315   58.665         0.50
 268.044  115.737   64.065         0.50
 156.919  105.470  330.236         0.50
 300.410   27.929  271.817         0.50
 314.875   29.844  249.894         0.50
 132.086  170.168  110.402         0.50
 176.714   85.979  263.639         0.50
  11.860  156.950  320.883         0.50
  35.606  163.400  342.668         0.50
  49.382  107.931  119.065         0.50
  47.305  106.077  118.372         0.50
 336.598   18.962  101.273         0.50
 196.655   81.993  166.450         0.50
 177.409   82.731  161.871         0.50
 210.296  100.957  199.653         0.50
 277.573   56.774   13.663         0.50
  87.085   98.733   75.445         0.50
 265.780   30.985  321.382         0.50
 205.789   44.877  255.813         0.50
 173.522   96.892   97.859         0.50
 242.586   59.270  293.885         0.50
 167.661   37.940   34.900         0.50
 207.686   69.918  270.027         0.50
  18.847  171.963  341.802         0.50
  55.755  119.291  332.407         0.50
  67.953  108.413   49.069         0.50
 211.893   66.333  282.421         0.50
  40.699  103.891   16.437         0.50
 331.535   98.684  118.423         0.50
  40.628  118.803   62.291         0.50
   3.265  113.312  251.651         0.50
  25.970  138.288  310.522         0.50
 244.844   60.736   50.995         0.50
 175.582   95.201  286.546         0.50
 355.230   84.406  211.728         0.50
 299.612   94.235  260.448         0.50
 228.745   25.458  234.102         0.50
 171.475   57.481  285.721         0.50
  74.718  123.099   58.884         0.50
 204.515   91.050  271.693         0.50
 320.203  116.331  279.571         0.50
 169.090  113.544  171.793         0.50
 208.310   38.843  288.231         0.50
  32.121  155.008  309.799         0.50
 214.193  137.328  220.638         0.50
 157.737   65.169  299.774         0.50
 302.947   81.947   83.219         0.50
 204.034   70.472  188.245         0.50
 166.478  101.928  302.607         0.50
 153.295   12.263   17.482         0.50
 156.911   76.122  285.825         0.50
  13.417   81.792  193.612         0.50
 358.097  157.764  272.074         0.50
 184.553  118.141  151.213         0.50
   6.944   62.172   88.333         0.50
  72.178   74.380    0.949         0.50
  23.917   89.916  184.802         0.50
 326.803  106.149  100.985         0.50
 220.061   50.062  254.050         0.50
 200.369  120.070  200.126         0.50
 308.253   32.312   78.778         0.50
 135.460  150.962  110.311         0.50
 183.690   89.647  316.884         0.50
 222.338  154.746  212.746         0.50
  13.913  115.127  173.056         0.50
  84.111  164.958    5.469         0.50
 326.988   72.153   83.535         0.50
  52.889  125.300  342.067         0.50
 103.021  163.712   67.915         0.50
 156.299   98.296  272.939         0.50
 181.525   47.826  280.549         0.50
 235.458   43.959  128.697         0.50
 165.988   81.463  274.038         0.50
  95.265   24.413  161.089         0.50
  66.936  112.852  347.250         0.50
 255.965   54.430   29.275         0.50
 353.936   93.927  217.631         0.50
  16.969  109.491  183.193         0.50
 225.284  158.842  188.694         0.50
  39.709  130.053  286.176         0.50
 214.855   61.755  253.918         0.50
 336.951   51.925  245.951         0.50
 350.406  163.772  283.420         0.50
 359.862   53.217  231.090         0.50
 349.586  123.377  132.602         0.50
 148.150  144.744  145.362         0.50
 130.941   10.298   87.310         0.50
 165.146   92.786  290.843         0.50
  27.163  134.294   10.408         0.50
 189.776  114.091  163.023         0.50
 359.600   40.374  125.179         0.50
  26.084  158.770  309.140         0.50
 144.902  157.192  111.717         0.50
  87.693  152.589   88.898         0.50
 148.278  101.808  129.039         0.50
 158.912   75.802  285.056         0.50
 204.351  111.665  200.553         0.50
 223.408   62.449    1.210         0.50
 190.304   62.598  306.182         0.50
 359.000   76.814  189.109         0.50
  16.627  100.530  144.342         0.50
 203.262   21.674  234.569         0.50
 288.784   95.152   36.880         0.50
 195.408   93.840  353.074         0.50
 308.438  125.309   86.046         0.50
 333.876    2.515   68.587         0.50
   0.678  101.630  175.030         0.50
 228.695   86.501  258.488         0.50
 326.291   12.459  268.836         0.50
 273.358  154.305  258.135         0.50
  36.212  135.863  335.089         0.50
 201.854   78.375  233.729         0.50
  96.120  158.863   52.403         0.50
 179.747   31.659  193.122         0.50
 182.436   29.139  191.482         0.50
 261.636   23.910  209.282         0.50
  22.786  108.786  282.106         0.50
 268.325   31.459   84.285         0.50
 169.996   88.631  267.782         0.50
  35.279  103.924  262.192         0.50
  23.505  136.355  306.874         0.50
 161.654  113.172  170.984         0.50
  25.088  103.073  336.197         0.50
 244.354   69.032   64.170         0.50
 185.416  100.041  108.632         0.50
  55.273  148.902   54.168         0.50
  11.085  118.617  322.391         0.50
 358.150  123.513  236.691         0.50
  96.847   31.964  181.453         0.49
 263.294  160.970  230.805         0.49
  13.580   95.187  163.650         0.49
 125.887  122.250  101.217         0.49
 199.153  116.293  216.478         0.48
 272.102   98.736   45.540         0.48
  95.356   94.333   91.400         0.48
 186.135   92.785  310.303         0.48
 185.194   31.328  309.844         0.48
 108.885   21.432  338.931         0.48
  31.820   57.244  171.738         0.48
 210.381  132.395  212.925         0.48
 101.304   85.411  314.908         0.47
 224.427  117.050  251.819         0.47
 215.352   80.244  240.821         0.47
 164.942  111.427  102.166         0.47
 107.291   54.542  152.269         0.47
 106.458   87.539  288.870         0.47
 305.945  103.664  258.934         0.45
   6.885   72.835   64.555         0.45
 192.748  111.772  152.819         0.44
  26.434  122.866  299.066         0.44
 291.755   48.962   68.248         0.44
 146.612  141.853  109.975         0.44
  97.276  120.931   73.779         0.44
 302.144   89.854   73.256         0.44
 296.502  134.521   73.817         0.44
 168.280   54.230  258.447         0.44
  37.029   92.165   43.333         0.44
 335.632   90.527  208.034         0.42
 148.493  124.071  114.060         0.41
  24.876   84.185  171.668         0.41
 137.921  103.809  344.222         0.41
  31.913   66.409  195.961         0.41
  14.763   72.329  142.844         0.41
 134.659   53.545  270.226         0.41
 281.656   73.686  237.787         0.41
 114.318  144.969   32.959         0.41
  99.531   71.390  114.741         0.41
 191.859   40.518  252.172         0.41
  20.455   56.081  185.834         0.38
  48.930   76.302   27.062         0.38
 119.798   57.284   72.126         0.38
  98.917   95.988  287.274         0.38
 325.724  118.164   99.584         0.38
 142.337  107.875  346.629         0.38
 235.760  118.569   45.425         0.38
 184.783   69.025  340.617         0.38
 185.095   72.365  326.872         0.38
  20.667   35.375  163.506         0.38
  18.432   74.040  212.719         0.38
 355.003  115.604  293.340         0.38
 170.106   73.675  254.635         0.38
  83.161   88.589   56.014         0.38
 269.002  134.790    2.958         0.38
 116.597   95.001  330.906         0.38
  18.850   90.991  195.985         0.38
 315.041  103.676   93.788         0.38
 136.736   41.712  125.814         0.38
   7.095   38.856   62.536         0.38
 308.066   50.190   78.187         0.38
 241.227  105.764  211.137         0.38
 111.662   24.007  270.331         0.38
 116.627  113.811  325.021         0.38
  51.818   48.442  185.882         0.37
  24.407   23.197  356.103         0.37
  91.891   98.230  105.981         0.37
 178.223  155.721   19.226         0.37
 241.789  132.450  327.097         0.37
  11.294   87.549  230.781         0.37
 289.586  155.217   70.912         0.37
 158.394   72.444  223.761         0.37
 319.433   87.581  258.870         0.37
 149.484   52.228  282.671         0.35
 253.843   63.133  358.736         0.35
  95.349   10.169  148.452         0.35
 239.403   48.460  134.955         0.35
 208.047   73.985  331.958         0.35
 321.330  154.687  285.401         0.35
 130.128   99.688  345.042         0.34
   7.025   98.852  266.657         0.34
 200.687  106.329  200.256         0.34
  70.728  131.256  301.890         0.34
 101.443  117.125   75.837         0.34
  15.986   32.724  183.514         0.34
 208.362  152.012  177.220         0.34
 113.473  151.865   88.091         0.34
  85.952  130.350  299.305         0.34
  48.182  150.580  290.384         0.34
 174.138   63.986  249.705         0.34
 113.720   99.420  323.417         0.34
   0.350  109.979  164.242         0.34
 167.997  156.383  131.135         0.34
 351.421   88.831  260.307         0.31
 313.060   77.998   66.138         0.31
 162.385  177.159  137.629         0.31
 113.663  108.144   72.546         0.31
  60.009  116.688   55.258         0.31
 300.988   31.473  150.837         0.31
  81.469  155.780   29.853         0.31
  52.412   73.813  132.281         0.31
 229.729  105.909  225.858         0.31
 210.603   76.381  103.801         0.31
 172.465   60.265   90.491         0.31
  62.995  108.291  298.735         0.31
  43.786   24.539  346.687         0.31
 179.685   85.205  286.564         0.31
 346.414   50.677   70.641         0.31
 185.851   82.471  154.432         0.31
  12.266   68.573   27.853         0.31
 260.679   10.091  141.588         0.31
 216.600  115.982  185.425         0.31
 285.869   97.069   82.353         0.31
 343.181   74.924   82.294         0.31
 105.908  154.688   42.551         0.31
 236.931   38.761  160.193         0.31
 300.212   76.793  303.316         0.31
 162.172   61.186  148.614         0.31
   0.316   51.501  213.503         0.31
  72.660   55.269  130.318         0.31
 176.745  123.631   95.050         0.31
 187.754   74.674   96.498         0.31
 231.228   61.902  114.186         0.31
  37.401   83.027   39.757         0.31
 345.942   40.454   53.410         0.31
 131.458   47.025  333.888         0.31
   3.774  114.725  136.094         0.31
 358.690   19.108  243.197         0.31
 303.413   53.295  256.004         0.31
 182.114  110.448  116.701         0.31
  21.449  154.305  246.183         0.25
 194.314   14.095  331.547         0.25
 223.145   61.503  241.338         0.25
  85.892  153.826   19.647         0.25
  23.435  158.913  306.089         0.25
  45.710   70.584   47.308         0.25
 181.382  139.745  136.902         0.25
   5.173   86.943  107.907         0.25
 166.960  124.739  172.472         0.25
  72.918   62.700  352.166         0.25
   1.235   58.355  246.986         0.25
 278.481   55.654   12.184         0.25
 111.875   32.303  317.405         0.25
 257.014   38.586  354.018         0.25
   5.144  113.233  134.933         0.25
 181.157   58.955  231.695         0.25
 161.558   80.564  274.172         0.25
 208.020  154.948  178.682         0.25
 105.885  157.185   81.587         0.25
 356.048   45.269  192.477         0.25
 199.075   40.377  206.915         0.25
 261.278  143.812   31.418         0.25
 265.545  143.788   30.648         0.25
  74.546   73.147  359.621         0.25
 251.041   65.668  336.105         0.25
 306.997   34.502   21.985         0.25
 126.465  151.112   98.893         0.25
  27.301   86.358  189.374         0.25
 338.569   28.245  239.551         0.25
  58.669  152.448   15.376         0.25
 352.581  127.280  131.257         0.25
 171.447  102.436  206.787         0.25
   1.669  147.270  348.951         0.25
 142.556   94.059  142.832         0.25
 240.287   63.158   64.566         0.25
  18.642  128.959  216.283         0.25
  65.773   66.850  181.642         0.25
 355.086  141.959  316.079         0.25
 191.613  129.006  209.288         0.25
 242.421   63.457   86.641         0.25
   7.144  108.771  151.745         0.25
 134.136  157.688  117.657         0.25
 229.407    3.528  187.045         0.25
 290.200   28.975  163.015         0.25
 303.061  118.743   91.806         0.25
  35.759  121.619  285.439         0.25
  85.747   87.460  154.856         0.25
 125.394   48.650  100.311         0.25
  18.996   58.859  228.386         0.25
   7.605   53.869  217.143         0.25
  86.371   76.454   46.134         0.25
 116.371   30.255   74.780         0.25
 176.813   64.408  270.363         0.25
  81.314  127.610   97.399         0.25
 172.077   91.853  328.642         0.25
 352.521  102.706  198.267         0.25
 169.484  107.412  147.439         0.25
 127.054   30.228  274.567         0.25
 344.788  124.665  117.185         0.25
  61.674   58.521  351.904         0.25
 295.436   23.893   90.272         0.25
 110.154   67.485  332.577         0.25
  27.159  126.925  306.074         0.25
 189.236   74.833  354.685         0.25
 193.939   59.972  265.357         0.25
 211.788   90.330  239.436         0.25
 249.655   29.649  208.938         0.25
 191.753   47.948  192.793         0.25
  12.895  177.608  214.956         0.25
 271.392   26.554  134.782         0.25
 325.875  134.448  106.597         0.25
 149.128   34.738  303.374         0.25
 359.883   84.909   83.496         0.25
 243.433  114.445  359.413         0.25
 186.507  103.685  177.137         0.25
 357.099  131.875  272.359         0.25
  21.802  139.569  335.642         0.25
  83.125  112.439  331.614         0.25
  10.337  122.294  339.337         0.25
 347.589  115.205  136.772         0.25
 283.947   38.337  290.755         0.25
  10.278  118.012  297.693         0.25
   8.183  123.030  168.892         0.25
 170.309  105.533  112.481         0.25
 182.356   78.253  230.372         0.25
 357.683  141.021  268.767         0.25
 306.359  122.436   79.550         0.25
  21.722  137.360  339.617         0.25
 168.580   39.680  274.423         0.25
  14.115   43.855  164.756         0.25
  72.298  146.628   42.246         0.25
 206.988   45.821  289.727         0.25
 209.370   38.299  347.763         0.25
 211.858  150.163  309.240         0.25
 192.708   65.557  221.124         0.25
 338.349   28.306  179.250         0.25
  54.775  108.216  324.361         0.25
 209.668  100.292  202.336         0.25
 163.177   40.042  122.284         0.25
 342.891  171.465  318.800         0.25
 165.354   46.932  236.496         0.25
 232.912   54.980   78.350         0.25
 178.834  123.637  221.110         0.25
  76.513  147.107   78.953         0.25
 176.036   98.264  264.371         0.25
 177.918   94.514   84.976         0.25
 332.086  107.951  259.659         0.25
 148.588   68.866   98.585         0.25
 260.872   84.754   28.790         0.25
 274.773  149.450  246.295         0.25
 170.317  164.717  133.548         0.25
  98.898  153.251   94.862         0.25
  14.431   87.760  148.781         0.25
 159.933  111.515  152.706         0.25
 251.675   74.601  335.310         0.25
 194.611  107.028  208.118         0.25
 192.510   70.223  238.802         0.25
 216.130   58.228  102.626         0.25
 118.737   10.874   39.745         0.25
  36.080  118.246  287.054         0.25
 155.343   39.257  289.999         0.25
 190.034  107.791  331.730         0.25
 256.144   55.095   29.032         0.25
   6.904  160.866  286.287         0.25
  10.601   94.149  201.699         0.25
 159.154   75.740  249.670         0.25
 333.797   51.285  258.383         0.25
 205.787   84.742  154.378         0.25
 344.014   93.924  208.379         0.25
 115.293  151.255   84.290         0.25
 172.229   98.108  182.911         0.25
 293.947   25.553   97.979         0.25
 194.609    6.485  202.763         0.25
 200.311   66.793  268.730         0.25
 160.945  135.760  154.446         0.25
  10.192  149.295  270.744         0.25
 265.355   25.809  138.569         0.25
 347.193   91.026  204.399         0.25
 272.916   25.395  191.348         0.25
  11.270   54.892   76.549         0.25
  30.665   83.818  208.958         0.25
 203.197   93.183  209.417         0.25
 178.883   47.617   86.424         0.25
 149.128   34.738  303.374         0.25
  37.353   94.189   35.029         0.25
  94.931  148.017  344.288         0.25
 113.184  109.053   73.762         0.25
 184.394   46.585  228.396         0.25
  62.415   74.796   13.639         0.25
  49.819   37.815  204.913         0.25
 186.148  122.236  243.793         0.25
 197.856   80.944  268.084         0.25
 133.030   67.009  121.593         0.25
  47.421  107.864  293.365         0.25
 228.523   72.433  247.216         0.25
 227.811   71.951   66.492         0.25
 330.840  158.602  251.459         0.25
 177.235   99.734  158.265         0.25
 128.881  116.319  300.962         0.25
 159.782   16.750  357.268         0.25
 195.483  114.214  210.999         0.25
 351.714   68.698  213.656         0.25
 341.405  159.789  299.327         0.25
  90.997   82.430   89.457         0.25
 166.840  100.723  299.266         0.25
 185.037   63.706  339.675         0.25
 137.844  100.317  141.346         0.25
 149.557   80.008  300.425         0.25
 165.945   16.090  297.577         0.25
 310.981   54.235  304.475         0.25
 157.749   76.264  285.213         0.25
 193.854   96.193  258.845         0.25
 195.628  110.866  213.941         0.25
 340.487  145.728  239.081         0.25
 206.699  126.665  336.302         0.25
  21.490   98.771  110.735         0.25
  15.473   53.565  210.167         0.25
 357.814   41.024  178.168         0.25
  86.963   65.232  115.575         0.25
 175.680  136.638  107.643         0.25
 305.982   97.490  189.518         0.25
  64.699  136.505  283.345         0.25
  46.562   20.618  170.300         0.25
  80.383  172.535  356.826         0.25
  73.968   74.512    6.873         0.25
 241.164   31.392  211.017         0.25
 331.766   67.140  289.695         0.25
 344.613   93.327  256.613         0.25
 122.604   11.571   95.678         0.25
 251.278  106.344   57.347         0.25
 207.080   65.144  223.852         0.25
 172.646   83.373  272.555         0.25
 171.059   76.664  160.228         0.25
 294.486  156.728  257.503         0.25
 166.200   39.475  276.814         0.25
  91.176  155.103  294.228         0.25
  76.126  146.798   43.061         0.25
 103.405   83.770  114.773         0.25
  52.941   87.368  113.963         0.25
 199.776  120.906  199.296         0.25
 339.887   82.459  245.556         0.25
 232.702   13.218  121.831         0.25
 194.047   46.939   64.410         0.25
  32.331  171.144    2.748         0.25
 177.354   92.451  167.709         0.25
 167.633  166.033  137.614         0.25
   2.992  146.706  278.799         0.25
  11.544  101.243  324.420         0.25
  61.354  154.804  319.403         0.25
  48.843   65.271  143.740         0.25
 352.940  100.677  212.283         0.25
 345.974  121.005  158.825         0.25
   9.233   84.840  194.055         0.25
  45.403   70.477  170.007         0.25
 107.006  172.865   91.595         0.25
 190.507  126.399  184.735         0.25
 228.398  160.203  205.560         0.25
  49.908   19.851  150.979         0.25
 356.248   61.662  235.025         0.25
   5.285   71.361  128.180         0.25
 324.915   47.864  150.079         0.25
 166.166  124.645  171.639         0.25
  64.509  134.582  269.004         0.25
  98.134   88.901   35.842         0.25
  83.815   79.325   47.403         0.25
  93.445   87.852  355.720         0.25
 164.769  115.856  326.563         0.25
  30.174   74.995  141.690         0.25
 320.985   66.846  238.948         0.25
 355.072  154.965  200.564         0.25
  96.267  137.292   11.538         0.25
 229.162   18.542  114.820         0.25
 229.162   18.542  114.820         0.25
 304.007   13.452   93.054         0.25
 131.436  158.815  113.971         0.25
 173.347  122.436  112.378         0.25
 214.719  136.693  179.475         0.25
  26.024  155.200   40.247         0.25
 228.693   71.764   60.338         0.25
  36.537  165.024  336.295         0.25
 174.368   94.193  167.514         0.25
 174.712   88.739  275.679         0.25
 161.575  133.674  137.839         0.25
 122.949   60.612  327.988         0.25
 301.694  119.507   91.510         0.25
 176.099  108.441  149.852         0.25
 161.589  158.517  144.145         0.25
 224.986   26.918  188.929         0.25
  12.267  102.423  259.360         0.25
 150.814   99.456  312.216         0.25
 309.108   59.044  263.399         0.25
   3.144  131.543  200.324         0.25
  94.974   34.499  148.384         0.25
  82.387  148.912   27.770         0.25
 182.745  119.261  150.545         0.25
 269.102   58.006  321.277         0.25
 175.420   97.593  266.449         0.25
 105.281  106.788  103.737         0.25
 173.410  139.447  109.956         0.25
 243.101  120.717    8.664         0.25
 175.874  100.442  265.652         0.25
 206.630   76.044  262.748         0.25
 319.533   49.925  269.551         0.25
  28.208   94.040  200.705         0.25
  65.972  113.062  347.392         0.25
  28.579   96.110   37.065         0.25
 246.424   67.276   12.137         0.25
  33.068  112.517   23.332         0.25
 162.727  107.558  319.604         0.25
  88.622   44.093  103.870         0.25
 350.230   63.349  263.509         0.25
 194.360   39.160  198.149         0.25
 236.219   20.775  100.130         0.25
 195.293   97.934  140.331         0.25
 332.155   48.723  141.225         0.25
 329.210   48.108  264.037         0.25
 329.992  149.533  286.188         0.25
 192.260   62.332   53.236         0.25
 111.816  146.525   84.727         0.25
 167.853   62.519   28.742         0.25
 173.424   88.677  202.158         0.25
 106.681   96.053  331.170         0.25
  17.201  111.168  301.501         0.25
  30.747   90.361   60.220         0.25
  58.467  155.420   22.368         0.25
 272.228   89.396   85.482         0.25
  13.792  113.309  185.813         0.25
  79.279   95.392   25.214         0.25
 114.988   59.315  330.183         0.25
  55.830  118.773  331.754         0.25
 357.196   32.039   94.824         0.25
 155.864   76.835  298.496         0.25
 176.810  106.066  150.379         0.25
 193.758  113.964  271.478         0.25
  20.476  139.756  215.051         0.25
 167.160   58.179   15.233         0.25
 204.892  134.103  208.428         0.25
   3.559  143.779  331.676         0.25
 215.137   75.758   98.054         0.25
 190.035  116.065  274.927         0.25
  99.712   50.334   94.953         0.25
   8.533   77.009   77.437         0.25
   7.177  118.204   48.663         0.25
  19.354   22.356   13.553         0.25
 178.132   55.800  324.491         0.25
 122.817  162.519   84.522         0.25
  10.280   98.545  238.705         0.25
 148.522  151.365   26.850         0.25
 200.324   36.704   23.230         0.25
 348.985   84.003   87.061         0.25
 181.880   98.646  209.333         0.25
  47.495   27.897  142.312         0.25
 338.718    4.342   47.301         0.25
 197.256   65.054  192.930         0.25
  40.572  148.378  329.089         0.25
 179.887   98.034  318.733         0.25
 215.195   80.034   11.539         0.25
  20.244  117.258  305.513         0.25
 202.778   22.017  284.761         0.25
 182.604   94.055  199.002         0.25
  11.909  106.915  161.977         0.25
  71.034   72.597  358.640         0.25
 192.117   72.012  253.795         0.25
 152.614  162.539  134.547         0.25
 151.726  162.649   74.246         0.25
  33.589  121.858   44.876         0.25
 169.552   85.438  272.335         0.25
  69.946   77.320   99.274         0.25
 340.307   81.649  206.823         0.25
  47.193   92.287  103.552         0.25
 236.457   93.066  352.177         0.25
 240.482  128.540   37.208         0.25
 184.428   90.289  205.577         0.25
 198.290   97.776  199.687         0.25
  29.172  117.979  100.535         0.25
 330.710   26.999   12.774         0.25
 209.545   33.832   28.454         0.25
  28.079  155.840    5.511         0.25
 241.640  119.040  231.491         0.25
 236.532  123.417  221.407         0.25
 181.908   94.925   81.582         0.25
  69.927   34.678    5.409         0.25
 359.454  147.614  330.608         0.25
 351.915  143.519  128.841         0.25
 182.495   89.920   46.991         0.25
 183.057   70.356  130.934         0.25
 161.622   94.804  294.582         0.25
 166.133  101.937   64.144         0.25
  84.306  107.887  344.740         0.25
 206.790  157.100  173.302         0.25
 165.145  168.876  136.602         0.25
 355.545  117.176  302.905         0.25
 172.845   73.947  169.825         0.25
 200.784  106.299  192.143         0.25
  61.047   59.890  181.108         0.25
 167.898   62.974   11.499         0.25
 259.783   23.136  113.621         0.25
 358.220   81.254  250.395         0.25
  44.739  153.008  291.250         0.25
  25.229   76.131  201.032         0.25
  91.565  158.511   63.216         0.25
  25.868   73.888  196.728         0.25
 149.564   50.505  122.963         0.25
 147.793   66.530  245.845         0.25
 303.413   53.295  256.004         0.25
 197.119   70.017  345.650         0.25
  81.626  120.536   36.174         0.25
  89.602  149.814   95.193         0.25
 196.964   41.009  331.769         0.25
 263.182   31.617  330.671         0.25
  26.760   45.701  168.030         0.25
 171.156  109.621  213.580         0.25
 197.463   46.534   51.581         0.25
 117.667  155.677   92.222         0.25
 178.969   86.147  143.808         0.25
 316.229   38.826   73.296         0.25
  38.977  140.478  330.564         0.25
  17.090  130.989  256.187         0.25
 257.647   53.458   38.659         0.25
  98.860  155.100   54.370         0.25
 342.826  160.451  300.174         0.25
 347.347   91.064  248.380         0.25
   8.997   85.085  193.349         0.25
  10.231  126.339  126.062         0.25
 248.273    8.394  345.221         0.25
  99.559   89.308  334.538         0.25
 347.932   95.035   91.459         0.25
  56.451  111.918   15.269         0.25
 236.518   67.654   43.626         0.25
  25.229   76.131  201.032         0.25
 244.373   96.359   21.060         0.25
  29.780   79.504  160.037         0.25
 179.848   67.473  226.403         0.25
 188.390  100.496  215.082         0.25
   5.366   70.950  166.706         0.25
 316.765   79.916   70.136         0.25
 157.510  120.096  323.416         0.25
