TEXTURE AT STRAIN = 0
1.0   1.0   1.0
DISCRETE TEXTURE FROM ODF FILE RD_800C_5
B 1509
 192.079  142.915   70.715     62452.70
 190.432  148.851   14.374     48044.63
  39.584   33.231  307.037     39445.76
 354.001  148.290   56.847     38825.18
   9.695   34.564  335.724     38761.97
 190.966   34.400   44.889     36528.37
 192.351   38.674  291.767     36109.51
 323.720  153.181  210.458     31423.88
 355.603  148.625   68.995     27872.54
 183.375   95.364  270.689     26716.62
 340.635  154.064  227.512     24931.86
  16.881  138.072  248.988     24679.56
   3.626  157.179  228.886     23493.39
   5.177  104.862   58.254     23007.70
   1.177   26.588  167.663     22509.73
 137.580  170.219   29.806     22181.46
 172.012   97.902   81.194     21784.65
 348.247   36.874  126.334     20830.08
 350.418   30.806   66.015     20391.72
 159.955  144.932  337.922     20354.19
 182.247  150.418   25.001     20028.28
  29.781   33.786  181.607     20019.84
   9.091  136.015  243.629     19803.11
 195.167   59.941  338.939     19220.57
   0.801   93.261   34.775     19172.94
 150.817   48.132  194.309     18794.34
 185.964  130.107   67.336     18658.08
 172.926  115.616   14.763     18624.72
  31.168   23.854  146.287     18245.13
 332.353  147.078   49.987     17597.64
  25.843  143.796  179.593     17592.73
 163.091  143.148   44.687     17060.24
 182.097   63.347  106.107     16964.27
   6.780  143.579   60.043     16393.84
 357.228   83.910  346.648     16363.55
 241.132    6.449  223.721     16303.17
 177.781   83.659   17.470     16102.44
 189.037  145.422   66.028     16068.31
 158.875  143.082  347.711     15763.11
  15.456  138.976   69.145     15499.26
 232.196  155.572  106.520     15477.61
  14.845  154.134  210.282     15427.38
  25.970  142.868  278.344     15363.58
 211.677   21.148  270.003     15353.76
 153.802  145.626   34.845     15288.52
 183.131  105.955  105.771     15208.56
 336.305  143.599   33.730     15109.80
   6.963  135.910   62.887     15037.66
 198.087   30.547   98.142     14659.50
 340.571   44.951  185.860     14561.35
 350.590  151.512  250.181     14471.91
  16.767   95.605   43.163     14393.34
 191.736   78.409  336.758     14219.56
 212.378  141.488  107.731     13796.79
 353.565   36.089  299.076     13561.67
   0.691  150.147  249.397     13456.88
 355.576   92.503   49.348     13269.24
 167.875   16.554  300.556     13197.51
 164.922   39.346  334.507     13184.08
  34.263  147.080   56.776     13146.55
 180.556   86.446   85.379     13028.49
 192.725   44.119  174.730     12617.10
   4.786   77.932   51.213     12587.19
   8.499   49.775  181.807     12451.14
 240.286    5.960  284.662     12275.32
 280.806  149.798  161.059     12118.29
 184.458  141.832   15.018     12087.98
 349.763   96.323   17.984     12085.38
 341.149  138.187  221.892     12028.65
 188.274   93.418  111.757     11939.24
 183.030   86.621  107.741     11898.32
 150.993  152.503   46.242     11821.39
 193.815   60.463  305.523     11655.93
 248.325  135.640  126.225     11608.47
 187.797   85.305  261.576     11475.13
 183.371  106.659   43.217     11408.15
   9.846   34.954  336.972     11382.44
  15.422  128.195   74.815     11063.91
 179.627   80.608  102.758     10972.54
   1.324   87.622   13.760     10945.69
 357.768  140.206  205.833     10876.41
 180.066  139.117   20.034     10761.21
   1.605   26.656  107.943     10746.65
 185.609   23.400  331.838     10604.84
 342.869   30.406  179.977     10566.52
 169.777  142.333   46.570     10543.93
  20.682   27.936   57.421     10471.98
  22.601  143.354   76.509     10084.87
 144.987   26.893   32.317      9988.45
 171.725  156.547   48.323      9961.02
 148.464   29.036  134.924      9930.24
 187.728  156.968   66.862      9861.94
 174.351   70.725  328.021      9762.80
 355.710  148.557   50.939      9632.80
 187.786  142.943   74.446      9412.83
 190.048  144.996   83.747      9411.60
 183.984  122.322   60.157      9346.15
 198.208  146.599   75.244      9336.07
 203.918  146.345   42.214      9133.97
  27.556  143.456  204.335      9072.48
 175.376  154.117   47.989      8954.70
 355.975   38.622   61.749      8948.05
 337.004   89.991   37.429      8928.72
  10.965   47.531  285.671      8901.48
 346.115  144.666  246.529      8873.44
  16.835  131.250   73.007      8839.52
 211.975   26.779   99.697      8803.87
 217.358  142.841  338.891      8752.05
   0.642   29.830  117.949      8748.01
   0.532  150.056   69.378      8731.27
   8.516   95.794   49.206      8720.99
   0.044   88.904   24.724      8638.60
 175.789   35.766  333.495      8614.86
 173.535  145.570  291.545      8561.53
 186.786  136.842   72.592      8434.87
 230.916  148.650   97.376      8429.03
 354.155   38.935  307.454      8391.06
 186.446   79.239  283.840      8382.26
  11.054  126.567   63.270      8377.50
 352.878   28.780  183.065      8339.82
 176.777  151.933   41.872      8259.01
  14.805   44.806  333.886      8188.41
 175.626   87.761   11.252      8167.49
 155.078  162.328   26.566      8119.85
   5.366   82.958   19.059      8010.73
 175.557   79.835  281.021      7872.17
 351.929  151.903  236.248      7869.14
 180.201   63.029  341.132      7756.13
   6.019  137.258   71.291      7679.05
 342.397   36.853  315.932      7649.60
   8.037   91.239   31.532      7621.75
 177.535  134.082    0.526      7530.96
 355.525  148.230   50.536      7459.94
 353.647   49.829  194.866      7448.37
 192.553  150.063   80.823      7395.86
 242.723  154.632  120.310      7394.70
   3.304  156.966  228.505      7376.85
 175.429  113.361   75.666      7347.79
 316.789  148.211  193.292      7281.11
 337.709   33.277  149.793      7264.51
 145.410  143.211  345.432      7252.51
 183.848   95.452   30.517      7201.29
 193.266   39.232  336.461      7101.41
 178.494   78.585  129.758      7067.92
 181.614  104.290  301.366      7054.50
 191.254  139.898   73.047      7007.59
 157.527   19.219  320.211      6919.88
 358.739   43.943  315.976      6886.63
 154.532  152.608   29.371      6817.35
 213.994   36.629  285.750      6795.44
 283.553  146.999  170.781      6778.38
 155.299   32.957  130.659      6732.48
  23.666   27.269  206.828      6705.63
   7.943   90.261   81.352      6582.66
  14.179   33.040  171.373      6558.41
 175.916  103.819   33.515      6533.30
 192.904  142.334   91.188      6503.25
 176.802   37.882  145.207      6492.51
  39.357   24.774  273.043      6488.67
 327.052  141.936  286.422      6437.77
 163.144   42.763  196.863      6431.97
 345.533  132.977  240.034      6399.35
 194.389  157.217   37.709      6388.38
 182.848   50.885  132.140      6354.89
 180.715   91.492  337.875      6342.19
 155.916  131.116  335.206      6340.17
 359.492  148.551   12.271      6335.84
 191.900   24.157  307.796      6329.92
 223.529   41.564  285.319      6295.28
 205.623   35.427  341.207      6245.49
 154.502  140.738   30.449      6224.29
 182.581  114.008   71.690      6164.22
 354.358   26.100  312.519      6068.24
 169.447  135.783  346.621      6003.29
  24.128  138.153  251.536      5968.36
 354.955  148.883  230.897      5934.01
 350.994  144.300  227.053      5927.94
 178.855  140.654   17.170      5906.29
 355.471  145.447  235.360      5895.98
 172.989   62.216  151.816      5882.91
 165.894  140.049   68.058      5857.80
 346.190   43.567  311.691      5831.81
 346.036  145.128   46.020      5792.05
   0.028   40.288  100.334      5755.89
 188.116  150.725   80.386      5734.42
 188.452   96.975    4.673      5727.84
  13.675  140.761   83.784      5651.68
 243.951  161.413  130.257      5580.96
 186.831   64.381   14.255      5548.62
 277.535   89.211   95.423      5458.46
   6.898  142.728  223.602      5454.23
 193.062   81.253   21.303      5354.63
 182.176  101.671  107.575      5318.26
   2.232  137.112   25.524      5308.74
 354.392   49.634  194.461      5290.12
 351.881  143.873   47.573      5251.58
 199.735  155.165  320.197      5204.21
   8.045  102.390   73.175      5165.55
 179.736   80.760  162.895      5161.51
 177.347   48.911  346.553      5145.20
 352.098  143.711   48.501      5135.53
 352.498  104.871   41.453      5130.33
 185.591   90.684    7.746      5124.13
 190.970   85.451  315.287      5065.38
   1.520  154.705   53.115      4974.45
   0.526  145.651    3.525      4921.62
 133.250   27.863  228.110      4904.30
 342.567  147.670   31.406      4890.59
 358.849  103.334   45.344      4876.16
 215.450   44.378  157.695      4867.06
  17.278   95.710   44.216      4850.61
 160.445   36.920   21.518      4776.42
 186.810   88.811  137.721      4762.56
 178.229   85.860  357.611      4684.91
 173.772  145.894  348.204      4679.42
 187.683  151.758   76.257      4659.91
 213.458   36.721  285.713      4604.66
 190.088  102.345  357.941      4577.23
 195.938  142.265   15.280      4545.55
 165.165   96.454   42.712      4521.59
 168.539   33.595   17.759      4503.28
  24.558   23.567  313.235      4496.84
 110.645   72.486  150.064      4477.64
 354.949  100.304   18.642      4458.15
   5.091  108.258   58.908      4401.72
 184.694   84.451   94.141      4397.68
 216.563  151.707   86.424      4363.90
 345.331   34.266  315.693      4343.55
 178.732  149.959   51.037      4343.19
 160.708   27.073  173.785      4328.39
 160.620  137.018   33.651      4270.54
 349.254  140.132   51.924      4266.04
 180.416  120.868   68.933      4232.03
 348.150   91.458   51.217      4182.90
  12.131  140.549   68.641      4157.79
 187.371   17.565  138.843      4156.88
 188.795   95.445    1.212      4137.00
 181.528  150.191   62.579      4130.89
 357.766   63.575  320.064      4123.10
 354.419   80.957   15.885      4088.51
  18.514  132.202   71.109      4055.81
 146.839   47.190  198.547      4046.94
 313.470   33.795  225.387      4030.48
   1.446   10.885  298.761      4017.78
 327.235  153.299  203.001      3996.71
   0.669   82.498   57.035      3978.52
 181.813   42.947   94.244      3957.74
 357.548   84.872    3.185      3956.00
 332.122   33.043  211.657      3949.08
 175.699   82.580  108.293      3897.26
 247.514  148.042  102.270      3840.82
 181.477  150.745   24.193      3808.35
 150.134  125.913  343.653      3807.05
 186.512   48.841  318.720      3800.99
 197.827  157.511   30.469      3724.63
 188.503   88.137  328.546      3615.66
 175.479   87.601   10.848      3608.73
 155.783  138.051  358.106      3599.42
 183.363   95.748   90.639      3573.72
 180.929   94.478   48.593      3561.10
  17.404  154.266  258.213      3516.93
 172.875  115.362   74.619      3491.51
 158.541  141.644   47.920      3487.27
 342.183  138.842  281.820      3477.57
 186.853  142.386   17.456      3458.04
 181.095   81.983  277.296      3441.87
 187.011   96.271   98.315      3437.47
  21.395  140.930   67.435      3436.39
 189.629   94.003   73.372      3412.14
 197.646  146.811   74.967      3401.03
   8.258  102.632   73.544      3396.64
 151.648  152.798   47.374      3388.18
 254.677  105.499   77.128      3371.29
 169.721  140.693   50.215      3362.78
 190.074  157.017   93.321      3352.38
 180.471  114.631   13.430      3296.24
 173.571  148.544   12.746      3281.65
  32.895   34.464  287.210      3273.65
 180.510   94.177   48.634      3263.18
 171.935  151.380  356.574      3253.66
 221.477   37.662  275.319      3238.07
   1.327   96.536   34.394      3237.20
 198.376   35.954  115.083      3219.02
 194.180   44.476  103.599      3157.10
  10.024  153.346  248.060      3133.71
 181.859   25.151  127.058      3125.34
 185.141  102.656  108.942      3104.56
 357.299  130.826   72.670      3070.06
 154.534  148.893   33.689      3061.55
  36.089   38.767  303.975      2983.46
 352.287   98.372   10.581      2907.68
  97.901   90.862   84.250      2894.81
 205.298   28.091  315.238      2892.52
   5.198   45.399  115.810      2857.31
 195.271  105.436   79.789      2852.69
 191.946  143.274   71.248      2851.47
   9.424   77.457    2.668      2835.37
 102.896   78.531  218.301      2831.04
   1.911   95.218   33.381      2818.05
  22.241   42.981  333.477      2809.97
 354.040  105.086   42.565      2773.88
 157.183  142.310  346.385      2740.25
 179.899   38.019  105.929      2731.44
 183.370   29.309  301.846      2726.54
 166.106   28.870  134.411      2630.91
 192.063  157.182   95.092      2624.92
  15.431  120.166   81.754      2592.88
  31.850  153.264  260.190      2526.48
 182.498   38.353  304.172      2515.80
  26.340  137.563  263.055      2505.46
 230.052  104.472   85.254      2503.33
   2.600   36.505   57.092      2502.09
 186.261  136.723  312.280      2441.33
   7.039   37.784   89.316      2407.84
 201.887  135.586   83.270      2391.96
 188.898   75.637   18.166      2387.63
 169.495  129.489    1.782      2365.98
 359.264   86.457   88.632      2335.67
 305.615   85.976   35.394      2324.41
 169.235   87.558   68.023      2314.02
 181.062   91.359  338.011      2308.39
 178.649   91.025   37.991      2308.17
 180.245   42.575  306.249      2305.40
 344.432  136.413   42.453      2292.37
 345.943   70.092   28.265      2288.91
 354.594  137.394   63.452      2275.05
 171.280  151.263   56.267      2274.62
 352.741  104.981   41.470      2249.07
 165.762   79.782   22.456      2247.58
 271.953   80.533  198.485      2235.21
   0.630   61.859  346.994      2234.70
 192.486   39.393  291.216      2233.48
 235.240   22.234  256.249      2208.51
 224.090  163.811  108.327      2199.68
 253.685  104.049   84.739      2192.13
  11.934   22.224  170.918      2184.98
 184.706   41.278  125.909      2166.80
 176.163   90.374  153.480      2160.73
  89.919   71.542  209.987      2155.54
 170.829  146.564   24.762      2155.54
   2.881   98.335   64.901      2150.34
 150.671  139.182   37.021      2130.42
 104.355   89.738  175.020      2127.76
  10.276  123.086   76.798      2108.77
 178.480   30.624   75.115      2095.11
 340.080   39.793  308.983      2076.73
  83.293   87.536  212.369      2069.80
 145.573  129.893  354.441      2054.21
  18.166   46.077  333.105      2054.21
 275.321   92.234   37.290      2039.49
  89.914   70.935  269.944      2033.43
 106.074   69.044  209.224      2032.35
 187.231   96.525  281.186      2029.10
 109.894   95.994  212.306      2008.17
   3.535  151.327   40.585      1996.48
  68.830   34.114  266.403      1990.99
 166.948   48.913   88.332      1987.39
  13.430  122.034   86.663      1964.15
 168.107   87.793  128.008      1955.49
 102.023   83.083  215.197      1930.01
   3.977  156.803  266.669      1919.70
 116.463   89.596  150.125      1911.32
 357.309   88.175   34.512      1908.86
 186.536   48.848  319.155      1902.66
 340.013  137.676  281.673      1898.40
 350.603   50.312  106.785      1894.43
 110.637   72.713  210.154      1880.84
  70.229   75.399   89.169      1858.49
 344.727   43.187  358.974      1853.29
  79.071   79.393  216.876      1842.21
 182.157   42.877  154.547      1840.30
 105.156   97.345  200.736      1827.89
 168.216   41.267   16.138      1826.88
 182.957   28.241  140.055      1798.73
  72.694   68.858  146.287      1761.50
   3.394   32.839  116.674      1758.03
 183.403   91.721  107.171      1756.30
 178.490  161.988   23.484      1749.08
  53.136  121.835   83.182      1743.02
 177.760   30.815  135.155      1733.93
 219.902  155.540   98.860      1711.41
 173.174   85.648   17.036      1709.97
 196.483  155.181   75.051      1694.81
 266.215   94.448   86.590      1678.36
 233.234  147.602  124.643      1671.49
 139.862  139.782  342.451      1670.56
 189.384   91.762  102.213      1668.83
 186.664   78.264  102.859      1662.91
 354.177   49.777  195.026      1647.32
 160.978  151.786   20.427      1608.79
 282.362   97.274  144.443      1596.52
 265.018   83.056   31.846      1586.56
 268.013   77.783  141.852      1581.36
 182.676   43.167   93.438      1579.63
 178.739   28.813  332.677      1576.17
 179.455  139.527  319.378      1574.07
   7.021  115.917   46.033      1565.77
 359.620   95.189   35.104      1564.33
  26.091  149.826   81.073      1563.18
 112.634   73.235  208.802      1560.17
   0.205  144.011  237.590      1554.08
 202.757  152.825   92.543      1551.05
 229.458  104.914  324.450      1550.28
 177.875   41.874   20.846      1537.20
  32.099   31.629   95.736      1514.68
 110.755  108.419  346.045      1512.95
 173.219  158.756   49.401      1508.18
 272.968   78.917  269.775      1505.22
 205.687   27.083  338.415      1473.11
  93.901   84.798  214.343      1465.60
   5.552   43.802  253.396      1462.72
 173.994  104.454  119.761      1454.06
 278.945   93.174  203.397      1447.71
 356.455   33.669  317.847      1430.67
 266.244   94.376  146.485      1422.88
 265.370  105.123  115.281      1421.73
 357.457  138.301  219.200      1406.43
 197.861   43.463  321.553      1376.98
  94.551  102.623  160.797      1346.67
 354.799  148.344   50.253      1345.80
 186.860   36.012  354.775      1345.23
  28.883  145.964  270.854      1326.75
 352.564   91.773   19.113      1298.17
 168.512  132.002   79.975      1297.31
 118.159   59.472  228.328      1288.65
 275.636   91.675  217.254      1270.46
 119.775   68.368  208.188      1262.70
 194.864  147.971   64.795      1247.94
 258.934  101.236   30.564      1246.21
  21.581  140.859   67.126      1239.28
  97.162   90.957  204.366      1235.82
 182.608   83.829  314.420      1221.96
   1.676   93.688   94.103      1217.63
 105.996   87.859  155.914      1216.62
 185.730   42.741  169.114      1203.78
  89.350   77.129  208.363      1202.04
 351.476  144.089   48.259      1190.78
   0.780   82.293  357.404      1189.05
 184.028   84.037   13.737      1158.74
 187.873   85.592   82.578      1155.86
 231.332   55.785  268.040      1133.05
  80.725  121.547  138.398      1131.90
 276.414   89.553  163.282      1123.23
 199.320  156.797   33.943      1108.44
 297.041   90.177  209.926      1105.91
 144.589  147.758  355.825      1099.85
 267.007   93.614   86.234      1087.73
 106.678  109.715  159.146      1086.86
 157.843   31.821  317.702      1079.64
 257.058  119.316  148.105      1079.50
 263.327  111.376  150.476      1078.20
 105.330   87.340  203.092      1072.91
 316.235   34.002  142.023      1072.00
 209.189  155.459   90.888      1069.54
 194.170   30.146   95.042      1065.21
  94.034   73.319  242.208      1054.82
 211.651   33.040   94.752      1040.96
   5.720   43.797  253.851      1040.10
 281.567  122.964  281.216      1038.36
 323.852  145.777  208.830      1036.67
 266.266   81.962  272.131      1029.70
  94.507   83.429  209.423      1011.52
  98.021   89.418  257.069      1011.52
 292.719   80.780  340.328      1002.86
 110.841   72.430  210.328       997.95
  60.397  107.405  267.009       989.00
  72.791   70.246  202.789       974.71
  17.841  138.630   69.525       971.10
  82.354   63.872  228.864       964.75
 169.047   80.716  322.151       963.55
 169.118  140.745  350.566       961.29
 266.226   52.681  264.228       960.42
 278.366   73.173  265.661       954.36
  58.367   79.941   92.257       949.16
  13.513  146.067   32.218       935.74
 188.184   63.717  310.567       929.39
 285.868  103.196  174.755       913.95
  53.429  112.323  260.740       907.59
 279.498   85.683   86.893       895.69
 147.291  108.004    5.031       893.74
 270.117  109.200  149.708       888.54
  67.311   72.290  146.951       883.35
 288.403   92.789  152.343       872.95
 315.013  129.778  194.664       870.36
 302.211   74.469  144.366       859.96
 137.014   81.732   24.615       858.23
 194.072   65.624  132.834       856.59
 348.368  148.766  103.662       855.63
  99.204   86.526  156.463       854.05
 286.910   89.227  145.889       854.05
 101.448   81.507   93.498       849.14
 121.359   72.247  206.938       848.27
 263.692  112.024  150.200       845.24
  84.475   78.265  223.770       840.91
  92.351   79.506  131.233       838.46
 193.440   34.656  148.058       836.58
 286.363   95.092  175.591       833.98
 276.120  132.871  143.007       833.27
 281.714  130.827  160.964       830.52
  49.210   94.867  249.970       815.80
 182.599   42.632   94.774       813.20
 173.995  104.469   59.952       806.13
 122.053   85.916  212.137       802.95
 175.801  141.908   49.580       802.52
 187.512  151.163   67.844       802.08
  88.938   84.805  167.384       793.28
  34.173   65.935   40.426       780.04
  78.384   79.489  131.309       778.56
 353.655   34.807  187.401       767.30
 116.335   80.043  207.228       764.41
 250.950   82.090   71.693       763.98
 287.249   84.924   77.055       759.50
 136.289   81.959   25.311       758.64
 261.133   89.121   37.704       757.43
  94.894   82.816  209.457       756.04
 120.312   67.830  202.839       742.18
  80.367   80.007  217.267       742.04
 267.456   78.386  260.924       739.15
  62.831   97.171  214.044       736.12
 264.847   82.934   31.746       735.93
 250.379  102.229  343.864       717.07
 258.437  135.601  110.579       701.48
 270.767   56.102  220.473       700.61
 267.507   93.599   85.802       698.02
  57.666  104.183   97.588       696.57
 198.124  110.445    6.792       694.79
  84.241   78.935  223.492       686.76
   3.413  156.654  266.380       681.85
  95.014   78.669  245.097       680.70
 179.369   91.038  337.844       678.71
 285.011   83.111   29.105       678.10
 180.558   90.351  134.116       676.38
 231.664   86.271   86.787       663.81
 282.731  102.711  209.862       662.94
 114.348   66.834  200.900       660.56
   1.828   93.508   93.919       658.18
 282.077  103.760  159.600       651.25
  58.838  106.495  251.339       648.65
  91.227   77.370  215.041       641.72
  99.720   93.387  276.375       639.99
  83.649   70.142  232.448       639.13
 181.199   42.864    5.982       638.98
 251.402   82.564  312.186       631.48
 347.924   85.027   37.005       624.98
 355.807   91.713   50.469       620.07
  95.175   93.668   36.103       611.94
 233.300   67.753  279.218       610.84
  57.006   98.315  208.129       610.55
   7.044   91.053   42.459       606.22
 105.238  123.554  266.592       605.33
 182.718   63.676  105.545       598.50
 239.110   99.445   88.211       596.69
 278.417   90.638  163.037       595.83
   4.980  126.622   71.408       594.53
 263.261   99.787  191.985       593.66
 176.089   36.634    3.802       590.63
 107.241   98.571  210.595       589.76
 256.417  113.016  106.769       588.03
  25.791  152.901  260.880       582.84
 274.588  106.186  124.908       576.77
   1.260   96.489   34.215       575.04
 302.872   81.365  216.765       572.30
  94.996   97.374   88.595       571.58
 280.787   93.906   80.553       562.19
 324.109  143.043  204.937       562.05
 117.953   71.300  211.198       556.71
 297.384  101.437   26.640       551.08
 194.136  142.863   52.791       551.08
  63.971   95.924  151.395       551.08
 278.371   73.494  265.198       550.79
  68.109   76.775  208.739       548.63
 262.482  115.776  131.415       548.19
  41.568  140.199   98.188       544.73
 141.255   94.871  168.974       542.13
  61.851   91.326  263.712       536.36
 256.747  108.457   41.042       533.54
  85.376   74.976  244.430       531.74
 253.313   67.762  308.310       525.68
  69.871   75.324  209.020       525.68
 187.061   36.297  298.458       520.19
 181.510   23.567  131.631       518.34
 282.335   85.559  326.083       515.72
  12.666  117.036   76.121       514.42
  95.118   93.645  216.158       508.36
 188.992   34.826  105.165       508.31
  74.293   49.519  240.340       508.00
 353.507   38.648  128.046       507.49
  41.162  147.593  119.534       505.76
   3.002  128.923  227.587       498.83
 191.037  140.269  347.147       495.37
 355.099  137.491   35.162       491.92
 245.151  111.619  132.260       488.44
  12.215   36.912  288.616       487.72
  60.337  107.348  206.918       485.12
   5.745   92.695   65.141       484.97
 269.394   72.588  259.427       476.46
  25.502  143.082  241.209       473.28
   1.411   81.071  348.925       472.85
  14.191  154.145  209.669       471.98
 182.754   63.106  345.108       471.12
 303.575   84.502  150.241       469.39
 348.404   92.415   51.793       468.52
 351.590   98.295   71.600       463.18
  92.214   97.237   88.892       458.27
  41.622  143.249  263.768       456.40
  66.975   78.694  138.523       449.61
  99.247   72.916   79.217       449.47
 284.698   47.288  197.446       447.16
 272.604  131.719  137.254       446.87
 111.134   65.789   34.620       443.40
 297.066   74.197  201.944       436.33
 235.694   84.896  266.800       434.74
 237.007  114.189  344.768       434.10
 238.336   73.487  108.802       432.15
   6.512  132.446   58.959       426.08
 113.180   61.719  211.123       425.36
 250.130   63.632  268.746       425.22
  94.463  105.122  131.353       423.49
 106.462   97.754  151.295       423.49
  66.792  106.375   98.765       420.89
 272.918   93.101  142.119       419.16
 123.665   79.846  213.651       416.56
 235.167   67.681  158.717       413.96
 110.767  119.255   12.399       413.02
  92.954  106.009  254.511       411.36
  83.521   88.141  269.413       410.50
 191.566  111.963   20.994       410.50
 138.461   52.935  199.823       410.41
  74.924   74.539  103.190       407.90
 188.389  155.707   22.304       405.30
 117.117   74.829  221.673       402.70
 188.675  151.528   68.458       402.70
 181.824  153.470   73.072       400.10
  97.447   62.522   70.595       399.24
 233.495   68.072  279.182       398.37
 298.300  113.704  173.647       396.33
 101.769   61.861  210.612       395.77
 247.024  100.789  342.627       392.31
 283.824   71.136  212.730       391.44
 123.248   47.167  224.456       390.58
 303.665   81.067  219.107       388.85
 170.596   54.439  116.450       381.92
  60.232  113.243  213.524       381.05
 240.099   67.790  266.809       374.12
 257.749  143.305  120.763       370.80
 120.658   95.080  155.652       370.66
 298.633   72.542  220.146       370.66
 269.098   98.314   77.237       368.06
 102.291   94.499  213.804       366.33
  76.930  101.926   95.227       364.60
  85.962   74.405  184.720       361.13
 249.298  109.165   91.920       360.27
  73.960   63.596  266.689       357.52
 352.536   35.500  326.391       350.74
  88.111   75.806  208.936       349.80
  91.947   46.675  222.809       349.73
 245.231   95.970  334.565       349.01
 169.218  142.600   55.281       343.09
 171.735  145.309   46.069       342.37
 175.303   42.622  355.825       340.93
 173.366   85.716   16.634       340.35
 102.843  101.592   58.542       337.75
 190.024  155.260   51.804       336.88
 142.948  148.104   54.355       336.58
 122.723   68.829  200.221       334.29
 252.307  117.270  159.046       332.55
 260.769  104.772   74.953       330.24
 192.667   65.456  312.679       329.96
 118.805   61.086  201.956       326.49
 173.831  104.805  359.146       325.63
 242.311   72.782  263.972       325.63
 243.433  121.324   91.311       325.19
  48.243   86.343  105.981       323.32
  10.716  140.649   78.559       323.12
  88.666   77.290  208.367       321.30
 249.858  102.065  164.025       320.43
 255.473  114.843  101.195       317.83
  86.518   57.830  214.065       317.83
 286.876   94.166  175.105       316.97
   2.933   83.185   25.104       311.91
 263.669  106.368   95.666       311.77
  46.409   74.945   86.057       310.04
 267.265   94.111   86.148       309.17
  81.502  105.985  130.255       307.44
 351.978  138.896  251.247       307.44
   2.787   96.128   44.261       306.57
 267.073   93.545   83.018       303.97
  13.422  167.078  244.221       301.38
 357.536   43.159   74.462       301.38
 143.670  150.272  338.497       297.34
 171.257  100.835  129.690       296.18
 129.450   61.429  227.993       295.31
  70.435   77.304  147.168       291.85
 194.137   39.824  194.273       290.41
 274.362   91.173   99.927       288.39
 265.771   94.093   86.331       288.39
 270.116  117.997  149.587       287.52
 206.878   31.691  127.414       286.65
   8.893  153.357  248.532       285.79
 193.884  139.866  107.362       283.99
 165.079  151.637    2.653       282.32
 274.572   78.205  272.556       275.40
  61.585   62.399  219.218       275.40
 282.765   63.729  243.672       275.32
 101.246   84.183  215.787       271.93
  25.747  149.564   81.229       271.07
  72.250   74.944  268.378       271.07
 270.418   81.815  243.951       268.68
 206.904  145.680   78.242       265.00
   3.870   78.653   46.203       264.14
 178.754  150.145   59.456       263.70
  95.657   51.772   88.905       263.27
 248.657   95.706  330.479       259.78
 284.092  101.876  268.878       258.94
 174.393  106.225   68.856       257.21
  55.211   33.427  231.692       256.63
   2.426  128.153   47.429       256.34
 123.632   66.143  198.846       255.48
 346.170  140.811   41.823       254.61
 261.388   60.647  283.697       254.47
  93.076  105.707   74.513       252.01
 307.500   70.198  333.875       250.28
 292.384   84.120   58.142       249.42
  61.267   30.990  237.826       249.13
 290.841   60.672  167.887       247.68
 260.410   62.723  304.502       246.82
 241.235  110.547  342.962       245.17
 126.239   90.194  210.291       244.22
  80.137   93.683  117.391       244.22
  78.928  120.962  174.872       244.22
 277.532  111.103  121.736       242.41
   0.467   93.999   13.021       241.62
 271.936  108.458  202.805       240.76
  99.397   73.017  199.413       240.76
  91.242  125.017  318.999       239.02
  75.466   65.087  258.649       238.16
  10.506  123.482   17.249       238.16
 240.127   97.153   79.676       236.42
 256.902  118.864  149.750       235.56
 115.141  102.726  154.238       235.56
  87.080  104.377  163.493       235.56
 298.415   96.075  152.762       234.84
  55.561   82.078   95.351       234.69
 253.187  116.962  159.731       233.83
  68.809   71.618   88.215       233.83
  86.772  100.367  183.171       233.11
 326.146  153.364  201.844       232.96
 252.980  109.871  336.651       230.51
 280.922  112.391  212.338       230.36
 112.304   49.159    9.788       229.50
 176.276  147.750   67.922       229.50
 166.259  152.040    4.724       227.76
 224.371   80.339  334.108       226.18
 101.190   75.996  243.689       225.72
 257.518  105.164  150.352       225.17
 106.103   86.158   34.499       224.30
 126.185   90.128   30.351       222.57
 122.884  100.181  144.263       222.14
   5.110   43.492   50.526       221.70
 137.342   81.542   25.057       221.41
 236.205  108.152  336.281       220.55
 256.053  113.287  166.928       219.97
 197.814   32.023  159.779       217.37
 295.116   62.473  329.440       216.51
  59.170   80.318   91.765       214.77
 266.897   97.422  209.419       213.91
 258.413  124.168  161.724       213.91
  86.190   85.990  273.662       213.91
 196.747   49.269  107.927       213.04
 249.214   62.735  149.568       212.32
 246.814   73.720  152.021       212.03
   0.859   81.768   48.634       209.58
 349.955  150.135   10.006       208.71
 185.676   52.227  109.966       208.67
  54.245   49.749  257.975       207.63
  98.221   89.770  137.596       206.98
 273.481  107.464  175.075       206.40
 300.334   70.650  207.100       206.11
  75.390   60.460  211.086       205.25
 233.404  147.396   66.534       203.80
 244.235  111.889  131.790       203.52
  84.639   68.780  206.411       202.79
 243.821  113.621   77.951       202.65
 192.021   42.408  321.809       201.78
 272.413   68.894  274.684       200.92
 266.278   74.034  273.430       200.05
 264.043   99.015  101.864       200.05
  60.671  102.652  148.824       200.05
 264.341  132.062  141.159       194.86
  60.322   62.844  265.172       194.10
  96.088   99.674   81.673       193.99
 110.474   78.643  211.132       193.85
 237.191  125.415  346.847       192.04
 225.642   33.995  117.681       191.39
 244.926  116.223  148.360       190.53
 270.744   76.333  140.684       189.66
  92.599   78.819   62.077       189.63
 247.786  148.743  112.563       188.19
 263.612   66.585  251.563       187.06
  85.922   93.929  208.007       186.20
 116.622   83.308  217.696       183.60
 143.604  148.685   21.554       182.73
 106.846   75.991  167.963       181.00
 301.001   75.310  279.618       181.00
 285.079   44.895  243.502       181.00
 352.021  151.595  236.491       179.27
 106.055  100.927  141.526       179.20
 284.843   34.293   62.624       176.81
 355.322   61.719    1.809       175.80
  90.075   97.292  213.204       174.94
  58.533   94.557  215.362       174.07
  95.597   46.989  217.563       171.09
  70.561   65.691  100.442       170.61
 207.861   35.714  340.536       169.74
 231.441  110.067  135.051       169.74
 227.831   64.583  272.434       169.09
 115.110   96.035  145.924       168.01
 298.183   97.678  350.175       168.01
  76.920   97.017  140.916       167.14
 188.365   17.880  137.552       167.14
 118.952   61.326  201.791       165.70
 252.312   75.455  262.896       165.56
 189.059  146.017   66.110       163.68
 232.829  113.234  146.196       161.95
  64.758   95.798  207.990       161.08
 134.549  101.895   12.190       161.08
 265.125   89.112  317.521       159.70
 280.879   98.131  154.967       159.64
 187.136   98.338  112.545       158.48
 114.601   65.312  209.082       157.62
 244.126   79.483  263.005       157.08
 275.173   91.239  157.473       155.02
 269.748   72.893  267.815       154.15
 115.185   95.854  146.006       154.15
 349.529   47.036   39.627       152.13
  54.912   52.935  254.051       151.11
 294.824   98.441  271.752       150.83
 283.778   74.526  260.411       150.11
 103.285   70.877   75.920       149.82
  49.078   95.262  248.937       148.96
  85.794  106.703  144.501       148.09
 290.532   83.937   27.739       147.22
 224.085   79.690  333.728       146.36
 110.803   99.128  125.180       146.36
  94.607   78.330  245.124       144.63
 115.042   79.319  207.744       144.48
  94.493   61.262  256.034       143.76
 259.219  108.373   92.082       143.76
 303.231  108.080  355.394       142.24
 166.594   31.442  318.906       141.16
  94.092   61.848  220.825       141.16
  77.746  103.694  139.691       141.16
 270.936  104.368  202.332       141.16
 265.953   73.898  151.384       140.30
 229.281  127.814  150.113       140.30
 104.677  100.207  141.397       138.56
  65.416   67.754  269.054       138.56
  68.561   76.137   88.653       137.55
 246.162   91.419  274.190       137.51
 130.739  129.588  338.568       136.83
 240.467   68.061  266.427       136.83
  83.688  124.099  122.701       136.83
 301.715   80.649  216.709       135.97
 119.374   99.996  144.367       133.37
  80.074   60.549  210.711       133.37
 295.284   77.083  206.617       132.50
 291.577   84.897  178.473       132.50
 122.189   99.653  144.465       131.64
 265.278   77.606  287.620       131.64
 123.788   79.027  154.088       130.77
 137.313   81.629   25.154       130.77
 251.573  123.856  107.405       130.70
  85.378   75.460  118.285       128.60
 264.129   66.997  251.717       128.17
 115.645   63.276  226.676       127.31
 127.634   79.333  154.278       126.44
 342.307  127.467   58.069       123.84
  65.407   84.891  259.187       122.98
  90.591  105.017  154.513       122.98
 154.511  146.942  350.103       122.86
 258.557  102.984   85.276       122.11
  78.884   98.477  148.506       122.09
 298.924   49.239  241.531       121.24
   1.859   80.789   48.389       121.24
  49.393   94.335  251.001       120.38
 313.840   87.697  156.144       119.70
   5.895   37.361  149.999       119.51
 190.137  115.466    6.936       119.51
 300.671  134.018  194.708       119.44
  96.048   74.519  214.699       118.65
 238.557   81.721  151.234       118.36
  55.795   54.030  257.912       118.33
 295.954  110.690  269.239       117.78
  70.157   78.409  255.938       117.78
 259.622   98.482  321.077       116.05
 187.569   96.337  280.520       116.05
 237.711  100.255  327.871       115.18
   6.717   36.761  100.543       115.18
  58.851   94.676   95.373       114.32
 250.836   64.317  267.224       113.45
  64.422  116.740  250.990       113.45
  56.383   54.040  257.968       111.02
 209.904  145.085  126.260       110.85
 267.185  107.912  236.962       110.85
 124.650   89.526  143.647       109.12
 246.423  100.397  325.570       108.33
 119.804  104.588   20.488       108.25
  76.600  101.228   95.275       108.25
 253.692  130.724  168.534       108.25
 280.363   78.982  275.346       107.39
  15.821   93.457   23.774       107.39
  66.342   77.403   77.345       107.39
 256.118  112.437  166.798       105.66
 179.345   53.519  114.260       104.79
 356.084   29.439  114.033       103.92
 122.567   81.220  214.737       103.06
  72.465  103.692   88.495       101.32
 102.787   70.537  195.762       101.32
 280.746   78.446  275.486       101.32
 121.734   99.200  144.026       101.32
   3.414   88.767   59.608       101.32
 113.066   63.100   72.223        99.74
 295.978   39.436   54.026        99.74
  75.152   90.689  207.857        99.59
 157.861  163.086   29.381        99.30
   7.748   83.995   18.189        95.26
 108.800   88.735  208.776        94.35
   5.454   44.028  111.076        93.53
  83.313   87.258  269.887        93.53
 174.452  142.138   75.289        92.66
 300.464   90.599  350.671        92.66
 220.463  116.808  101.209        91.80
  68.464   70.984  149.089        90.93
  67.669   69.392  227.320        90.07
 282.840   76.723  236.680        89.20
 279.908   73.879  265.364        88.33
   1.355   96.318   34.030        86.60
 246.502  148.439  111.732        86.37
  84.943   82.338   77.910        86.03
 294.924  111.156  128.566        85.74
 290.807   59.373  167.854        85.74
 107.720   87.168   35.732        85.16
 178.332  145.984  355.699        84.00
  12.370  151.711   68.438        84.00
 301.113   67.312    5.637        84.00
 114.438   75.160  215.709        84.00
 109.367   90.595  121.944        83.14
 301.836   93.378  199.014        83.14
  96.611   74.493   87.860        82.66
  94.708   97.721  208.239        82.27
  72.671   68.582  146.069        81.41
 118.659  123.026   87.501        80.54
 266.842  107.233   82.806        80.54
 352.795   38.032  344.762        79.67
  85.602   77.760  236.809        79.67
 276.501   91.513  336.749        79.67
 114.974   64.896  209.266        78.81
 107.059   84.294    4.313        78.59
 234.352  127.233  162.123        78.21
  98.893  109.298  137.383        77.94
 181.211  130.988   48.359        76.84
 267.940   80.124  296.987        76.50
 116.419   81.689  204.975        75.34
 232.730   58.267  115.232        74.62
  83.555  108.830  265.806        74.48
 256.681   78.410  264.088        74.48
  56.782   71.685  263.278        74.48
   6.734   23.490   54.338        74.26
 103.876   72.006  149.176        73.61
 157.918  162.527   29.801        72.75
  94.250   71.970  217.076        72.01
 348.500   37.101  307.295        71.88
  85.723   74.397   64.792        71.88
 168.257   41.529  316.072        71.88
 235.883   90.641  326.107        71.88
 115.493   64.767  208.687        70.15
 243.658   67.076  282.439        70.15
 279.763   69.102  249.138        69.57
  49.561   94.835  249.208        69.28
  63.675  116.732  250.515        68.56
  84.240   77.760  224.174        68.42
 268.134   35.836   29.615        68.42
 317.761   80.855    2.732        67.55
 265.779  102.112   63.271        67.55
 239.098   94.303  160.816        66.68
 107.957  102.688  144.988        66.68
 296.431   73.076  218.676        66.68
 241.068   95.123   93.995        66.18
 249.705   85.571  282.584        66.11
 299.391   90.586  335.908        65.96
 111.747  116.520  343.906        65.82
  59.978  115.889  251.383        64.95
  87.028   99.692  184.680        64.37
 276.394   19.175  200.619        64.23
 119.322   69.940  198.016        64.09
 316.968   79.855  217.058        63.65
 258.918   81.055  269.137        63.22
 359.853   54.646   78.148        63.22
  86.690   99.840  183.439        62.35
 141.058   24.913  333.861        61.49
 208.624  143.777  105.814        61.49
  42.191   32.090  288.930        61.49
  79.740  116.670  115.867        61.49
 124.955   94.371  144.682        60.62
  80.862  109.461  122.743        60.62
 234.304   68.209  279.923        59.76
 281.492   95.357  244.296        59.58
  83.706  106.996  145.090        58.89
 239.604   99.546  328.039        58.89
 297.681  106.271  164.084        58.89
 107.915   97.652  211.232        58.02
  86.425   91.037  264.424        57.24
 113.908   69.603  210.958        57.16
  68.564   77.854  256.702        57.16
  85.330  107.280  264.519        57.16
  24.659  128.698  236.440        55.71
 345.092   46.311  192.690        55.43
  76.695   71.458   84.528        55.43
 115.589  118.139  287.194        55.43
 321.824   87.500  188.178        54.56
  15.968  154.450  210.784        54.56
 218.821  145.914  112.197        54.56
 116.575   80.065  206.789        53.69
 124.774   72.812  214.950        53.69
 175.395  145.451   50.031        53.69
 296.896   76.243  205.785        52.83
  67.720   77.375  136.990        52.83
 286.169   74.158  222.527        52.83
 265.916  106.619  114.893        52.77
  86.702  100.192  183.560        52.64
  62.340   89.765  143.407        51.96
 185.707  123.453    2.045        51.96
 274.265   91.108   99.311        51.96
  83.959  101.030   99.033        51.10
 324.165   87.331    8.503        50.52
   6.937   23.265   54.359        50.37
 177.821   96.817   11.537        50.23
 209.000  156.708   87.382        49.36
 263.575  107.275   95.430        49.36
 124.482   89.607  153.308        49.36
 274.590  141.399  138.377        48.50
 180.683  113.451   73.661        47.63
 272.657   74.157  281.191        46.77
 236.323   91.360  145.866        45.90
 233.008   93.357  324.823        45.90
 121.324   46.950  224.568        45.32
   3.132   96.528   48.102        45.03
 296.585  121.985  180.547        45.03
 148.660   86.281  343.603        44.67
 346.422  151.194   45.374        44.31
  70.900   78.410  256.132        44.17
  98.401   74.179  219.813        44.17
 266.512  133.824  148.264        43.30
 260.807  100.531  321.773        43.30
 102.445   76.596  218.461        43.30
  15.291  120.302   81.181        42.44
 186.861   95.699  281.114        42.44
  89.951   61.086  228.148        42.44
 299.332   81.200   42.067        42.36
  83.525   61.019  190.903        41.57
 111.127   95.815  152.185        39.84
 107.632   71.992   41.913        39.84
 168.718   31.247  317.470        39.84
 264.012   55.004  236.990        38.97
 104.431   70.270  213.849        38.97
  83.097  108.276   85.440        38.97
 118.773  122.638   27.321        38.97
 270.636   84.732  265.403        38.97
 229.030   85.473  291.227        38.97
  95.590   86.458   94.736        38.11
 118.670   71.150  198.110        38.11
 117.119   79.593  206.951        38.11
 237.693  144.926  130.021        37.38
  52.982   74.843  276.787        37.24
 285.097  150.918  215.586        36.37
 317.649   79.644  337.385        35.72
 299.150   73.263  130.840        35.58
  84.385  108.235  205.391        35.51
 100.669   38.466  201.949        35.51
 174.004  145.709   48.098        35.51
  97.090  107.104  152.759        34.64
  79.806   41.960   40.616        34.64
 244.904  116.687  153.369        33.77
 118.521  122.329   27.343        32.91
 346.981  103.298  228.813        32.91
 152.236   44.979   30.679        32.91
 108.738   76.845  212.828        32.91
  87.347   78.449  262.350        32.91
 231.541   94.071  155.379        32.37
 183.196   25.324    6.478        32.11
  85.624  107.300  143.966        32.04
 100.141  106.368   35.410        32.04
 184.966   38.379  359.075        31.18
 272.314  107.780  261.425        31.18
 271.825  112.219  356.899        31.18
 217.278  156.052   97.362        31.18
  69.932   74.781  269.282        31.18
 293.988   40.771  176.334        30.46
  90.462   87.755   83.225        30.46
 298.038  102.793  324.401        30.31
  93.602   68.177  220.380        30.31
 255.162  136.364  108.487        30.31
 241.602   63.771  286.560        30.31
 318.048   80.006  337.888        29.73
 264.077  131.738  140.984        29.44
  65.599   78.605  138.212        29.44
  92.170   77.161  236.013        29.44
 274.923  101.609  174.531        28.87
 118.421   74.999   42.405        28.72
  61.309   95.842   93.793        28.65
 137.420  100.393  203.204        28.58
  87.818   54.155  182.436        28.58
 317.820   80.075  217.781        28.58
 306.538  109.250  351.306        28.58
 114.361   77.017  208.199        28.58
 317.685   79.517  336.988        27.71
 266.375  101.859   62.972        27.71
  82.715   67.147  211.730        27.71
 264.711   72.288  155.439        27.71
  64.175   93.660  211.655        27.19
  55.732   54.282  257.949        27.15
 110.571  119.899  192.720        26.85
 292.056   59.056  286.588        26.72
 307.196  101.770  205.789        25.98
 283.091  110.294  223.237        25.98
 180.649  113.187   73.955        25.11
 124.367   93.659   55.711        25.11
  15.669   85.873   80.518        25.11
 115.046   81.455  147.742        25.03
 258.687  134.743  129.659        24.25
  38.042   99.543  275.688        24.25
  86.615   98.011  217.082        24.25
 118.055   67.338  209.601        24.25
 115.749   76.945  150.926        24.25
 106.694   83.071   36.565        24.25
 266.555  101.665   62.825        23.38
 314.195   86.126  155.439        23.29
 112.260   69.634  211.032        22.52
  84.067  105.654  256.904        22.52
 274.652  100.581  115.852        22.52
 132.548  126.011  334.815        22.52
 278.365  108.079  219.872        22.52
   9.135   64.258  354.259        22.52
 183.708   95.207  270.308        22.52
 180.247   72.770  350.594        22.52
 102.162   82.071  215.222        22.52
 277.479  104.881  176.680        22.40
 253.378   79.896  158.925        21.94
  90.987   68.277  183.289        21.65
 107.751   89.183  225.366        21.65
 281.394   63.066  244.285        21.65
 240.434   51.293  268.916        21.65
 266.633  133.218  149.152        21.65
  69.192  113.563  150.704        21.65
  99.390   86.759   38.345        20.93
 106.062   72.606  228.508        20.78
 248.916   54.229  302.897        20.78
 272.420  133.363  135.840        20.78
 118.818   82.709  189.982        20.78
 174.570   94.720  122.917        20.78
 104.668  135.686  333.788        20.78
  41.868   76.154  226.869        20.78
 265.543  106.160  115.372        20.50
   7.672   46.385  115.765        19.92
 343.394  151.367   43.264        19.92
 223.562   78.346  139.791        19.92
 296.025   75.912  101.979        19.92
 116.878   96.712   74.631        19.92
 106.008   88.700   33.887        19.92
  83.978   80.567  257.722        19.05
 235.425  126.599  102.384        19.05
  24.906   21.993   82.044        19.05
  84.257  107.625  144.875        19.05
 232.529  113.213  146.071        19.05
 293.660   63.905  210.040        19.05
  86.848   99.965   62.977        19.05
 115.761   80.084  207.141        19.05
  83.453   86.154  270.268        19.05
  53.511   74.836  276.856        19.05
 317.951   79.769  337.073        18.76
 123.592   99.108  141.636        18.19
 251.047  106.310   42.195        18.19
  74.981   93.726  101.539        18.19
 196.903  141.430   50.332        18.19
 290.181   74.007  237.163        17.61
 100.524   42.780  215.522        17.32
 106.801  101.732  319.662        17.32
  85.824  106.800  264.128        17.32
 294.956   40.274   54.551        17.32
  95.993   86.374   94.966        17.32
 284.489   46.685  244.790        17.32
 287.652   71.908  209.129        17.32
  95.127   71.033  246.662        16.60
 289.869   73.867  239.216        16.45
  84.126  124.641  123.158        16.45
 246.521  148.516  111.441        16.45
 252.688  107.124  125.773        16.45
 172.105  142.598   15.030        16.45
  85.975   82.179  150.817        16.45
 235.889  125.299  101.929        15.73
 283.184  107.842  150.515        15.59
 280.820   74.656  265.305        15.59
 115.683   57.333  198.827        15.59
 286.236   73.946  222.313        15.59
 293.254   51.885  241.000        15.59
  96.003   51.546   28.252        15.59
 267.057  107.812  356.902        15.59
 286.456  103.338  175.237        15.59
 154.499   44.466  206.725        15.59
 285.173  151.330  155.994        15.59
 252.300  122.424  145.538        15.59
 177.490   73.395  281.510        15.59
 137.990  100.287  322.469        15.59
 100.144   80.588  210.711        15.59
 179.706   41.903   19.581        15.59
  73.298   67.963  261.976        14.89
  83.191   80.059  224.546        14.72
  68.203   92.437  205.703        14.72
 163.608  151.053    3.319        14.72
 235.538  126.895  342.495        14.72
 126.899  102.811  159.338        14.72
 290.585   69.784  207.716        14.72
  96.157   47.607   18.955        13.86
 266.894  133.933  269.099        13.86
 285.153   94.133  145.277        13.86
 114.616   65.747  209.363        13.86
 355.253  141.555   44.523        13.86
 266.518   79.695   56.715        13.86
  91.654   76.958  259.681        13.86
  95.303   71.516  246.535        13.86
 107.771   69.625  228.532        13.86
 101.962   80.823  217.427        13.86
 317.846   79.703  337.597        13.28
  75.346   43.906   71.859        13.28
  64.231  112.789  137.698        12.99
 142.450  122.702  274.891        12.99
  94.438   62.419  220.727        12.99
 121.353   85.018  159.303        12.99
  85.881   43.500  214.509        12.99
  94.952  102.996  160.775        12.99
 117.958   67.493  209.504        12.99
 161.944   42.701  317.426        12.99
 285.468   90.638  147.212        12.99
 254.904   93.407   81.628        12.70
 317.338   80.323  338.053        12.34
 266.867  133.391  149.271        12.12
  82.601   69.336  209.751        12.12
 260.759   54.508  287.516        12.12
   9.978   46.373  294.152        12.12
 122.828  104.362  140.447        12.12
  58.469   93.239  215.635        12.12
 123.274  120.042  155.606        12.12
 317.331   79.531  217.287        12.12
 177.408   33.623  325.886        11.40
 277.871  100.573  153.976        11.26
 303.025   76.738  310.202        11.26
 266.763  134.287  268.986        11.26
 101.658   80.717  217.753        11.26
 273.474  107.524  160.642        11.26
 200.885   87.174  150.544        10.95
 233.094   94.036  325.285        10.54
 183.652   95.218   90.563        10.39
 113.684   72.757  213.804        10.39
  99.563   40.410  202.245        10.39
  71.756   64.502   64.806        10.39
  57.764   79.632   92.053        10.39
 286.346   43.339  265.665        10.39
 160.522  161.654   29.375        10.39
  80.883  125.699  132.512        10.39
 149.652   84.272  347.620        10.39
 124.450  115.062  259.803        10.39
 124.061   91.118  152.514        10.39
 252.628  125.354  148.349        10.39
 259.520   79.931  265.698        10.39
 104.939   89.521  152.780        10.39
   8.911   37.138  103.826        10.39
  95.136   71.145  246.538         9.53
  79.105   40.769  219.346         9.53
 182.343   99.667   99.423         9.53
 295.805   76.293  342.170         9.53
 132.046  104.884   11.481         9.53
 116.650  124.896    1.323         9.53
 257.743   75.311  130.963         9.53
  99.143  104.955   33.775         9.53
 101.492   80.881  218.008         9.53
 102.783  125.602  147.918         9.53
 298.796   71.559  220.553         9.53
 142.380  120.319   70.822         9.53
 137.456   99.001  117.833         9.53
  91.608   68.624  182.244         9.53
 181.256  130.189  346.758         9.53
   0.542   88.291   22.345         9.53
  82.615   41.667  218.972         9.53
 237.884  100.240  327.683         9.53
 313.003  148.809  189.167         9.45
 245.871  111.434  132.539         8.66
  58.303   79.747   92.175         8.66
 106.721   74.335  227.548         8.66
 263.857   79.557  260.925         8.66
  97.520   77.415   82.581         8.66
 312.217   91.740  186.750         8.66
 210.743  142.368  107.044         8.66
 264.022  107.166   95.419         8.66
 130.436  129.426  338.572         8.66
 290.287   89.778  278.549         8.66
  86.580   85.174  277.499         8.66
 118.384   67.849  208.955         8.66
  57.895   95.131   95.603         8.66
  71.864   68.606  146.514         8.66
 254.422   93.104  321.557         8.66
 245.621   74.562  151.176         8.66
 288.619  111.229  191.117         8.59
 113.566   73.118  213.177         8.44
 300.819   73.912  121.871         8.37
 116.354  100.798   41.733         7.94
  94.668   80.196  221.490         7.79
 142.278  122.202   94.494         7.79
 290.407   74.134  238.479         7.79
  55.693   53.472   77.979         7.79
 279.986   73.266  265.211         7.79
 189.946   56.482  104.678         7.79
 266.227   73.847  273.402         7.79
 170.928  150.844   19.692         7.79
 292.024   59.794  286.962         7.79
 266.247   73.996  273.251         7.79
 256.593   78.490  264.671         7.79
  81.907   92.702   89.117         7.79
  85.871   73.878  244.803         7.79
 239.260   66.984  266.146         7.79
  85.999   74.749  244.830         7.79
 285.857  102.368  175.277         7.79
 199.415   82.085   74.218         7.79
  94.527   80.279  221.654         7.79
 239.416   50.406  268.170         7.79
 122.284   84.856  159.425         7.79
  86.216   90.314  212.158         7.79
 297.524   70.857  126.316         7.72
 246.120  111.798  132.944         6.93
 300.852   66.328  206.975         6.93
 258.065  109.134   76.482         6.93
 249.570  105.134  150.276         6.93
 170.307  143.701  340.759         6.93
 118.641  104.520  141.257         6.93
 318.086   80.375  338.019         6.93
 235.561  126.518  341.766         6.93
 136.345   99.601  203.643         6.93
 288.087   71.539  209.518         6.93
  47.350  126.381  253.003         6.93
 303.764   71.452  114.365         6.93
 293.970   62.402  194.399         6.93
  58.059   95.288   95.461         6.93
 109.147   90.806  121.616         6.93
  85.132   74.084  184.273         6.93
 267.787  134.567  150.003         6.93
 240.760  109.369  320.304         6.93
 122.863   94.789   64.962         6.93
 286.389   73.649  222.582         6.93
 249.610  102.243  164.282         6.93
 105.101   89.808  152.367         6.93
 100.545   89.206   67.412         6.93
 121.814  117.574  128.399         6.39
 254.219  112.482  337.897         6.28
  74.421  106.799  208.384         6.21
 137.823  100.208   22.735         6.06
  79.822   41.887  221.450         6.06
 169.342  143.687   40.336         6.06
 254.872  136.277  168.060         6.06
  10.697   63.958  353.259         6.06
 115.760  103.612   77.999         6.06
 116.934  109.017   53.400         6.06
 252.578  111.445  333.581         6.06
 241.092  139.188  107.249         6.06
 117.718  109.249   54.012         6.06
 120.757   91.898   53.073         6.06
 110.762   95.835  151.932         6.06
 229.450   85.157  170.926         6.06
 102.633   70.593   76.059         6.06
  52.523   67.228  274.039         6.06
 141.512  121.179  273.020         6.06
  10.189   64.865  233.429         6.06
 123.930   86.839  159.683         6.06
 145.085   92.258  171.221         6.06
 122.527   56.753  215.906         6.06
 294.806   86.332  240.935         6.06
 267.257   86.890  322.810         6.06
  94.271   62.341  220.720         6.06
 113.417   61.273  210.698         6.06
 112.958  112.045   18.167         6.06
 303.277   92.329  200.676         6.06
 317.356   79.918  336.804         6.06
   6.346   89.107   82.510         5.27
 132.698  105.063   11.509         5.20
 101.889   80.558  217.320         5.20
 101.891   80.435  217.273         5.20
  10.687   64.335  353.201         5.20
  92.924   61.353   72.686         5.20
 122.845  103.904   50.197         5.20
 264.017  131.738  140.934         5.20
 289.503   70.969  204.160         5.20
 255.105  118.886  148.942         5.20
 115.951   96.556  146.012         5.20
 131.898   88.608  233.222         5.20
 119.344   70.007  198.113         5.20
 101.077   42.573  215.338         5.20
 111.302   78.567  210.670         5.20
  57.894   94.929   95.510         5.20
 137.780  116.953    1.851         5.20
 284.226   82.323  202.158         5.20
 284.674  151.539  215.093         5.20
 286.484  103.886  175.233         5.20
 267.540  134.726  149.583         5.20
 227.685  127.407   89.874         5.20
 274.921   76.737  139.514         5.20
  18.948   97.816   45.635         5.20
 228.238   85.113  291.294         5.20
 353.799   34.426  131.991         5.20
 300.351   88.214  127.369         5.20
 296.914   65.594  282.473         5.20
 285.913  102.606  175.353         5.20
  84.911   74.117  244.346         5.20
  76.947   66.935  132.259         5.20
 174.046   64.704   12.748         5.20
 108.673   69.059  228.685         5.20
 237.131   98.351  145.328         5.20
 266.542  133.609  148.811         5.20
 122.196  104.563  140.652         5.20
  94.064   62.862  221.483         5.20
 317.715   79.143    2.720         5.20
 178.815   53.572  114.043         5.20
 111.317  117.259  192.619         5.20
 109.215  109.267  150.719         5.20
 281.017   66.780  228.488         5.20
  47.123   55.228   36.164         5.20
 101.913   82.179  215.067         5.20
 266.435  101.840   63.199         5.20
 132.027  104.841   11.813         5.20
 311.174  150.584  210.558         5.20
  58.084   79.711   92.547         5.20
 239.422   81.713  296.081         4.85
  28.159  111.825   56.819         4.33
 132.092  114.715  128.214         4.33
 249.878  104.863  150.662         4.33
 126.441   91.457   67.459         4.33
  86.478   46.837   91.176         4.33
 262.286  115.938   70.952         4.33
 236.958   69.082  152.851         4.33
 107.651   69.944  227.922         4.33
  61.070   41.032  251.997         4.33
 259.929   61.709  305.489         4.33
 204.540  147.429  113.652         4.33
 108.224   98.228   75.982         4.33
 245.304  111.114  132.410         4.33
 230.586  110.008  134.801         4.33
 107.634   69.570  228.287         4.33
 238.261  118.158  154.357         4.33
 115.433   79.975  145.836         4.33
  94.098   62.400  220.884         4.33
 312.463   74.919  228.488         4.33
 298.005   70.593  126.637         4.33
 119.514   70.319  198.469         4.33
 241.552   68.834  266.086         4.33
 249.685   63.459  268.548         4.33
  94.149   77.877  245.834         4.33
 245.627   74.307  151.137         4.33
 104.606   29.182  204.907         4.33
 310.556   73.960    0.575         4.33
 292.693  106.683  212.068         4.33
 199.434   82.557   73.807         4.33
 199.431   82.157   74.254         4.33
 303.872   65.702  280.460         4.33
 199.258   82.055   74.506         4.33
 280.445   60.107  251.346         4.33
 171.163  149.861  319.686         4.33
 240.915  139.274  347.030         4.33
 105.176   97.179  150.305         4.33
  73.924   49.828  251.458         4.33
 273.102   76.268  286.025         4.33
 286.033   44.021  265.327         4.33
 241.306   64.592  288.134         4.33
 250.240  104.072  151.766         4.33
 311.957   75.372  228.216         4.33
 288.367  110.841  191.628         4.33
   1.058   82.095   57.901         4.33
 113.655   71.999  207.968         4.33
 103.138   70.250   75.330         4.33
  80.106   53.015  228.786         4.33
 102.807   70.978   76.214         4.33
  61.650   41.860  251.536         4.33
 291.797   59.923  287.368         4.33
 294.087   98.309  182.306         4.33
 257.394   28.330    8.482         4.33
 107.887   96.203  103.485         4.33
  95.577  160.800  279.504         4.33
 266.179   74.123  273.284         4.33
 312.081   74.869  108.707         4.33
 288.111  111.100  191.277         4.33
 318.925   68.946  110.292         4.33
 319.108   73.732  243.101         4.33
  94.220   97.399   87.271         4.33
 292.748   65.197  292.437         4.33
 258.519   28.051  247.890         4.33
 122.883  102.760  170.065         4.33
  94.522   44.752  145.743         3.32
 168.134   92.197   34.580         1.80
 182.854   94.880   90.658         1.68
 144.378  133.026   90.556         1.30
 315.125    4.130  141.798         1.01
 243.979   79.651  261.131         1.01
  40.628   67.947  239.300         0.87
