TEXTURE AT STRAIN = 0
1.0   1.0   1.0
DISCRETE TEXTURE FROM ODF FILE TD_800C_5
B 1097
 175.066   38.433  251.054     79389.41
 172.180   39.642  184.532     73414.27
 166.495   30.410  247.243     67116.33
 354.129  150.402  279.852     49052.98
   6.770   29.000   41.734     43547.51
 172.330   78.462  257.890     42738.99
 175.183  145.006  157.171     39037.39
 359.697  128.381  345.547     38293.04
 173.182   31.555    5.952     36892.39
 341.714  157.087  294.106     35606.73
 334.631  145.715  294.572     31406.70
  12.075   39.764  214.161     29501.64
 197.353  147.783   54.080     29323.94
  15.393  149.715  339.938     28943.07
  18.122   91.171   84.370     28646.14
  27.349  148.688  317.937     28149.79
   7.460  138.971  311.599     27394.40
 330.777   42.940  131.943     25676.47
 224.526   37.991  345.761     25094.53
 173.093   41.222  248.640     24928.69
   7.565   38.585  167.036     24458.19
 160.686  146.804  160.029     24221.59
  17.562  154.967  281.411     24079.40
 185.796   33.108  170.825     24074.80
 345.420   29.581   13.817     23852.88
 354.544  153.979  264.461     22793.76
   8.387   42.879  166.949     22466.65
 176.245  151.841   17.883     22367.52
  13.515  141.699  314.929     22272.73
 121.032  150.154  110.587     21893.27
 169.020  144.221  175.935     21852.23
  18.364  146.954   74.761     21457.19
 200.260  138.544  175.783     21272.25
 350.060   28.935  108.082     21029.69
 157.442  135.269   44.908     20190.80
 333.278   35.073   16.312     20028.14
 166.586  155.874   60.483     19819.50
 181.124   38.282  288.325     19692.56
 305.208   35.187   35.888     19491.86
 210.528  145.010  190.048     19270.29
 203.047  154.501  200.864     19209.07
 184.936   85.233  164.849     19207.12
 182.311   43.097  239.791     19105.18
 357.304  148.441  352.879     18956.50
 341.699  128.315  104.946     18896.76
 189.017   39.332  268.330     18874.05
 193.790   42.143  282.492     18784.81
 176.217  144.481  157.326     18760.71
  10.373   30.217  209.985     18555.09
 222.466   45.888  216.636     18395.25
 201.861   48.453  229.458     18359.74
  44.890  152.905   46.647     18343.56
  10.743   22.485   63.668     18300.52
  15.133  150.402   29.916     18296.81
 195.724   93.489  154.465     18058.68
 216.853   25.002  243.672     17860.31
   3.815  114.158  149.690     17490.92
 162.319   95.144  158.711     17327.44
  24.805   36.258  153.588     16987.95
 173.118   40.508  317.817     16722.76
   6.758   45.395  207.298     16663.41
 176.582   85.009  108.830     16314.76
  12.193  137.445   70.413     15828.20
 356.231  142.675  283.876     15673.18
 331.896   39.380  196.971     15643.88
 137.010  150.799  133.587     15352.32
 345.346   62.454   57.202     15249.45
 176.187  143.218   27.503     15046.78
 213.283  146.494  212.976     14858.40
 173.042   29.755  204.933     14425.24
   9.807  147.198  342.604     14215.81
  13.811  135.271  322.763     14162.98
 212.782  152.980  153.343     14073.20
 347.824  126.277  293.328     14009.69
 209.322   28.999   45.306     13968.99
 357.285  147.426  275.037     13753.35
 188.776   88.708  221.429     13677.64
 184.972  153.383  147.383     13304.17
 170.251  135.216  122.673     13021.88
 178.023  144.219  183.146     13002.99
 336.260   37.414  217.305     12875.20
 155.949  145.255  141.420     12850.95
 182.145  115.752  132.460     12795.24
 192.651   38.453  239.699     12722.63
 354.275  150.270  280.556     12404.95
 189.953  144.700  139.269     11629.14
   2.285   71.740  172.369     11519.29
   2.027  136.433   15.040     11483.64
 215.520   28.427  276.074     11464.30
 224.847  146.418  210.545     11372.20
 203.790  149.319  188.664     11361.45
  27.384  123.970  309.731     11165.52
 210.363  154.910  197.681     11048.68
  11.137  137.659  318.011     10901.17
 359.071   78.438  206.799     10701.15
 176.380  145.579  172.972     10636.60
  24.565  140.906  301.146     10564.50
 183.254   26.269   64.339     10532.23
 169.671  146.691  177.136     10491.46
   1.523  128.103  353.990     10476.99
 166.680   20.300  245.648     10346.74
 338.073   43.270  195.650     10335.04
 154.035   16.451   82.827     10260.67
 223.688   29.776  318.830     10198.31
 194.428  143.638  196.198     10178.64
 349.229  139.996  277.538     10030.31
 187.120  136.022  192.350     10028.98
 154.623   40.112  274.108      9955.83
 162.156   36.504  236.313      9894.34
 328.128  150.082  293.088      9833.31
 340.593   40.201  191.513      9775.84
 192.311   32.458  148.834      9596.28
 283.245  150.272  251.450      9595.27
 178.811   80.631  164.822      9590.60
 174.371  142.340  154.806      9541.00
 193.891  147.956  183.944      9501.16
 183.625  145.348  192.553      9407.64
 358.224   38.953  103.000      9331.13
 193.488  127.087  170.773      9292.45
 201.996  141.516  206.963      9287.13
 226.498  154.975  180.009      9240.64
  30.311  149.739   50.751      9216.59
 345.213   39.242  199.185      9173.81
 182.064  146.760  178.261      9114.48
 150.634   20.518  271.697      9068.07
 348.761  136.572  332.217      8971.16
 186.080  145.057  180.153      8773.52
 353.433  152.030  286.920      8560.23
 202.026  153.223  208.117      8542.04
 182.764  142.348  169.581      8532.37
  15.316  128.418  312.309      8496.86
  19.459  149.609  309.812      8423.83
 204.624   25.989  165.570      8408.02
 207.856  147.388  202.465      8347.33
 187.518   93.634  154.674      8312.35
   4.703   80.531  198.773      8291.76
 185.271  133.001  186.620      8217.43
 204.523   30.187  105.936      8215.26
 149.323  142.666   52.534      8126.36
 168.211   33.682   20.806      8058.08
  11.053  128.636   21.100      8039.31
 167.384   95.376  198.547      8021.40
 180.100  122.645  187.036      7910.54
  26.350   27.328   28.414      7889.20
 345.958   43.945   66.032      7884.30
   8.367   24.817  179.055      7871.30
   1.979   73.551   20.991      7785.14
 203.529  142.043  201.105      7779.51
 106.294  147.554  296.001      7776.91
 162.268  148.332  172.050      7761.61
 175.461  140.549  165.327      7752.37
 171.128   33.688   16.938      7730.00
 172.125   93.289  176.376      7684.39
 209.849   38.363   37.698      7501.51
  20.450   41.237  154.708      7471.47
 190.238   74.186  265.024      7307.50
 358.414   83.207  145.463      7177.91
 339.319   40.914  206.677      7141.46
 179.178   96.840  345.081      7002.68
   9.645   47.552  217.413      6944.37
   3.430   36.212  354.825      6937.08
   1.323  136.044    0.017      6786.57
 200.404   30.840  252.676      6779.56
 186.179   92.237  214.875      6756.17
  11.627   93.564  132.605      6736.31
  10.266   39.138  164.895      6729.74
 357.569  150.735  226.874      6688.31
 206.863   32.883  290.777      6678.86
 113.761   49.626  271.175      6647.55
 349.733   94.979  134.887      6598.25
 338.567   24.382   11.304      6460.55
  28.147   34.410  337.678      6408.40
 347.500  120.423  141.913      6375.82
 171.033   42.180  198.690      6318.09
 176.483  142.673  161.587      6226.17
 184.208   36.875  290.200      6186.89
 148.302   31.658  100.523      6020.49
  32.734  139.043  311.011      5999.54
 162.844   24.714  277.441      5992.01
  28.646  149.235  235.118      5943.39
 166.994   95.732  198.140      5918.32
 184.039   75.306  157.607      5907.52
 175.618  158.135  116.802      5868.98
 192.797  139.560  187.847      5842.21
   2.330   97.580  110.520      5754.63
 207.955  142.878  203.209      5741.17
 179.821   49.670  188.035      5729.74
 212.069   30.403   30.773      5665.54
 191.143   45.379  220.010      5662.07
 196.810  144.129  194.528      5660.34
  44.817  140.244   81.026      5600.84
 169.538   25.196  180.967      5550.36
   4.857   39.221  219.891      5511.12
  22.253  146.956   22.371      5435.46
 143.924   35.068  260.407      5432.58
  14.653   37.161  161.461      5373.69
 357.956  131.180  341.587      5360.33
 235.066  155.062  205.209      5339.38
 286.409  132.751  247.976      5339.15
  87.909   28.985  129.565      5292.28
 170.939   23.476  258.887      5278.57
 349.011  168.293  259.691      5195.57
 153.880  146.348  186.547      5161.52
 204.022   23.353  331.706      5052.10
 190.729  125.446  187.183      4978.78
  13.870   32.515   10.687      4968.97
 346.222  140.526  231.058      4967.81
   2.980   90.387  209.281      4935.07
  30.764  138.648  303.717      4905.17
 185.146   46.847  161.760      4883.96
 168.759   89.016  350.480      4821.16
 341.624   38.574  198.513      4793.45
 203.655   48.134  259.719      4753.61
 204.246   37.081  159.197      4690.39
 181.539  138.335  130.319      4680.87
 281.556   70.939   57.016      4660.00
 178.964   29.986  190.716      4646.23
  21.711  135.833  297.188      4498.14
  20.897  153.103   14.352      4469.56
 152.589  134.039  326.101      4460.90
 332.684   42.152  225.626      4444.23
  16.290  144.294  332.816      4434.34
   7.064   53.478   54.225      4355.24
 174.591  144.823  171.631      4340.95
 329.651  136.574  271.420      4337.66
   9.894  116.962    9.595      4336.33
   4.955   65.038   10.870      4241.72
 189.852   63.172  230.658      4235.01
 214.134  144.901  192.525      4214.95
 173.557   28.011   54.461      4124.29
   6.869  157.119  291.318      4099.91
 196.528   29.917  331.437      4092.84
   7.570  142.988  225.006      4088.65
 212.821   58.225   35.343      4083.31
  38.112  147.747  274.537      3965.49
 179.598   92.117  128.616      3958.89
  12.400   34.424    2.138      3954.13
 166.669   68.109  259.706      3922.66
  15.568  149.428  339.704      3914.43
 177.599  100.745  345.330      3905.49
  25.017   47.729  336.035      3887.73
  24.773   28.221   55.007      3868.54
 194.134   65.342  244.224      3816.86
 208.299   30.354  283.371      3813.11
 166.948  134.286  172.931      3789.73
 359.487   68.203  190.114      3745.56
  65.168   39.620  151.790      3684.36
 359.029   82.204  205.320      3671.08
  17.588  146.745  311.276      3627.92
  25.969   33.695  335.440      3611.04
 355.677  151.249  342.470      3590.54
 357.808   92.634  174.933      3590.54
  11.046  141.025  118.507      3582.15
 203.690   48.828  170.577      3581.30
 348.557   91.013    9.765      3517.22
 176.146   87.552  184.971      3509.10
  51.026  161.748  333.257      3491.81
 190.839  155.583  135.547      3434.51
 176.079  142.748  174.949      3422.68
 349.689  150.950  345.116      3411.20
 164.143  134.114  166.916      3405.21
  14.263  131.080  319.039      3396.55
 355.606  139.429   71.359      3392.22
 188.917   88.811  161.421      3380.96
 218.738  145.383  174.787      3312.01
  60.960  159.422  345.069      3298.69
   0.541   30.757  125.206      3281.11
  19.279   44.302  168.478      3255.46
 328.794  142.544  309.970      3189.60
 173.617   38.077  262.438      3184.66
  22.820  153.242  313.766      3178.89
 338.589   51.160   44.504      3174.85
 180.082  111.960  170.188      3135.01
   3.539   40.101  165.498      3128.08
  10.339   38.138  164.687      3119.42
  46.631  155.360   58.480      3118.58
 177.549   48.954  346.124      3083.34
   7.657   32.864   17.422      3066.02
 339.112  134.468  100.234      2977.40
   3.998   47.671  243.244      2943.76
 220.049   34.538  148.862      2940.44
 190.940   37.209  348.824      2857.45
  15.524  154.456  321.272      2838.25
 175.944  105.719   98.200      2818.34
   8.144  119.064  313.442      2810.25
 217.664   22.562  349.003      2778.07
 162.450  142.296   31.382      2734.91
  21.142  141.995  330.429      2728.85
 353.218   87.241   86.499      2722.12
  17.473   79.220  159.518      2720.69
 169.560   84.742  345.200      2717.30
 186.432   91.737  154.337      2710.95
  15.914  134.401   17.656      2708.06
 187.291  145.203  150.179      2706.76
 280.254  106.695   73.468      2706.10
  13.854   40.729  350.065      2672.55
 178.170   63.555  312.891      2664.81
  42.333   88.999   15.516      2593.46
 176.778  133.297  217.288      2582.78
  10.097   46.381  359.009      2555.64
  66.346   61.339  301.708      2517.98
  16.308   91.667   84.571      2510.78
 346.857   38.474  202.051      2483.76
 337.394  140.761  286.600      2465.57
 336.209  160.523  231.851      2442.19
 199.797  148.311  178.771      2428.77
  35.107  147.528    8.672      2425.16
 174.675  139.692  169.302      2425.09
 181.978  115.763  192.199      2424.87
 172.189   66.711   58.045      2378.03
 184.793  115.642  172.408      2365.95
 202.460   24.742  221.421      2306.66
 144.785   43.980  270.250      2287.46
 176.092  103.715  132.179      2280.53
 178.873   41.397  285.265      2241.56
 170.072  122.846  168.327      2232.04
 182.219   78.398   32.810      2221.40
 314.256   26.017   41.832      2218.47
 200.154   27.671   47.829      2178.05
 357.612  103.520  177.885      2161.91
 286.083  132.966  247.205      2153.52
 346.505  144.428  187.459      2061.57
 248.771   48.627   52.228      2043.82
   4.181   98.573  168.524      2008.31
 129.356   35.530  239.833      2004.49
 326.191  176.144  299.537      1969.34
 158.291  134.029  338.911      1966.74
   9.786  147.701  340.906      1965.01
 121.734   23.383  272.968      1934.27
 191.564  100.044  207.728      1866.25
 207.833   34.917   11.881      1862.60
 197.454   47.394  231.352      1850.70
 248.231  107.831   16.823      1842.04
 353.982  155.603  277.955      1832.51
 284.449  105.847  241.361      1813.65
 352.553  136.592  354.787      1811.81
 337.954  149.634  281.451      1758.18
 177.934   90.741   77.985      1746.34
 180.279   99.722  153.007      1733.78
   7.560  150.660    4.570      1728.73
 170.205  126.475  168.594      1660.89
 338.776   51.915   44.135      1603.59
  10.386   55.091  172.815      1579.63
  99.284  127.779   13.319      1569.53
   0.534  130.793  354.076      1563.44
 136.073  153.527  329.720      1559.13
  52.753  114.881   85.052      1557.11
 111.801   48.813  133.899      1540.51
 182.648  133.101  139.169      1525.94
 189.730   36.913  261.926      1520.41
   6.390  120.642  319.973      1517.62
 196.894   34.656  250.483      1489.56
 169.635  126.257  168.343      1489.20
 357.130   64.965   49.473      1481.43
  81.159  161.584  104.640      1477.44
 184.056  132.340  177.310      1471.52
 159.920  139.455  212.765      1466.33
 177.758  149.960  135.953      1453.19
 161.282   94.016  280.168      1416.58
 194.484   31.986  240.205      1404.69
   9.808   46.150   59.252      1393.43
   4.790  106.865  201.331      1382.75
   8.705   50.211   14.221      1378.64
 150.259   78.792  323.895      1360.53
   9.120  141.279   20.140      1357.93
  15.701   46.974  172.722      1327.26
 347.683  116.933   96.411      1317.15
 185.309   86.140  195.033      1314.18
 184.117  139.228  172.942      1300.08
 151.077  140.130  149.000      1287.78
 353.709  129.257   68.345      1283.74
 166.399   70.467  180.259      1272.19
   9.937   79.618  127.548      1270.74
   5.452  130.365   76.725      1245.01
 110.654  122.388   56.990      1221.96
 223.818  121.582  207.313      1195.12
 246.514   53.266   19.836      1186.31
 178.881  111.748  169.399      1156.14
 252.790   86.527   31.289      1151.31
 329.654   26.316  254.239      1135.79
  12.294   93.397  192.017      1104.09
   9.182  108.799  109.323      1102.59
 171.934   77.297  257.889      1098.26
 198.824   31.422  190.562      1093.79
 358.203   38.175  214.812      1088.59
  88.706   66.580    8.528      1065.93
 114.929  107.203  328.033      1060.02
 252.723   31.696   38.706      1056.26
 198.042   46.779  358.680      1048.80
 355.371  121.557  107.906      1016.38
 351.487  140.293  114.946      1011.11
 352.635   64.090  357.018      1008.92
 163.222  153.253  162.595       984.38
 243.974  107.957  244.062       963.89
 271.966  113.792  232.922       958.83
 243.561  115.759  236.019       957.82
 164.202  139.976  141.760       926.65
 197.813  148.175  180.788       905.00
 205.655  148.591  183.531       897.20
 255.762   99.685   51.570       893.79
 183.496   96.471  271.840       885.94
 127.265  124.042  151.727       864.10
 344.628   45.256  265.688       840.04
 359.967   78.490  205.839       824.46
 300.265  134.729  233.413       822.51
 284.180   98.855  243.082       816.73
 180.814  143.224  189.240       816.66
 109.794   72.785  284.339       813.20
 357.695  104.411  117.270       811.03
 172.081  140.379  167.648       802.81
 122.926  149.006  108.324       796.65
  50.284   32.811  348.053       793.98
 174.604   89.442  311.256       792.70
   9.530  117.345  309.299       782.89
  15.502   85.896   85.649       774.44
 343.716  138.115   91.936       774.23
  74.414  108.009  344.032       772.49
 201.673   24.164  327.487       769.03
   0.200   79.504  146.616       757.77
 250.697   30.065   46.439       748.25
  81.686  162.593  104.199       738.72
 259.709  111.576   47.674       736.16
  80.980  117.158   88.411       698.16
  78.849  155.986   50.542       696.28
 343.872  131.948  107.757       692.99
 154.430  112.577  343.150       662.80
 185.677  157.916  115.261       661.43
   8.552   83.684  158.493       655.58
 254.065  145.941   24.400       654.23
  63.703   88.785  331.616       652.12
 178.671   87.474   67.207       650.82
  62.498  151.239  348.965       645.87
 260.113  111.529   48.372       637.39
 357.586   34.717  252.980       635.66
 178.109   68.430  226.126       634.80
 270.267   44.034  341.008       633.50
   3.768   83.610  208.167       631.04
   1.152  135.776    3.397       629.60
 327.439   48.842  234.084       628.30
  66.274  131.055  306.280       622.09
  80.860   68.352  131.930       621.73
  20.573  120.852  290.518       600.97
 132.114  136.504   77.264       600.16
 236.427   94.392  240.851       599.29
 278.757   76.263   84.174       595.54
 347.409  167.369  317.727       589.69
 170.286   35.210   56.406       588.03
 300.169  138.059  230.932       570.60
  31.851  162.117  313.410       567.54
 175.854   89.510  316.887       559.45
 164.797  144.854  169.024       557.14
 178.303   89.829  317.368       551.37
 353.667   72.233  225.303       548.19
 358.746   98.970   15.883       548.19
 165.250   30.036  226.688       544.73
 352.504  135.903  353.681       536.96
  81.544  103.007  116.170       528.28
 293.904   23.828   58.565       526.54
 170.479  122.406  168.162       526.11
 184.101   85.960  202.426       521.35
   4.743   85.964  219.437       515.57
 105.885  122.388   83.079       511.97
 293.907  153.636  248.750       501.43
  46.097  152.686  319.911       499.70
 343.136   60.449  115.524       492.77
 256.114   98.680   35.550       491.90
 352.648   57.642  190.357       490.03
 174.153  109.740  179.253       486.21
 240.320   98.020   50.707       478.91
 187.920   88.695  161.567       474.00
 134.668   68.302  164.944       467.58
 300.949  108.343   82.161       464.19
   0.009   81.128   87.211       460.15
 326.620   65.537  101.746       458.99
 341.089   47.048  202.371       458.43
 180.259   35.439  226.170       450.53
  60.807   95.820  359.034       449.54
  36.795  145.266  310.886       447.74
 334.868   38.292   19.401       432.01
 197.687  155.817  162.317       430.41
 351.129  138.607  318.490       429.84
 108.698   54.506  312.914       425.07
 149.517   30.692   80.187       421.77
 183.304   43.918  239.347       421.21
 189.697  164.972  161.982       420.89
 246.203   76.695   57.865       418.30
 207.872  129.882  171.214       414.83
 291.093   45.422   49.884       408.91
 340.018   97.936   18.710       400.93
 179.838   18.984  215.337       400.39
 352.004  148.052  348.288       391.44
 225.507  159.564  249.789       390.78
 341.330   27.693  242.022       377.59
  32.291  154.202  330.518       376.72
 104.692   74.330  298.672       376.14
  45.953  123.492  325.383       374.12
  13.864  104.085   28.727       372.03
  28.634   84.736  171.770       369.22
 244.180   60.521   20.206       365.58
  71.952  110.243   39.147       362.43
 355.487  143.844  324.856       358.53
  16.024   91.472   85.002       358.53
 341.580   84.069  200.457       353.92
 102.433  142.891  117.150       353.34
 342.148   84.396  200.305       352.47
 118.575   70.541  282.304       352.47
 189.221   83.783  152.130       349.30
 201.614  141.292  175.339       345.76
 334.638   38.129  230.126       342.95
  77.963   96.719  100.340       342.08
  79.096   64.738    7.824       338.33
   5.765  126.393   74.090       336.88
   1.963  102.762  176.050       334.56
 300.795   30.099  248.756       333.78
 119.236  131.966   76.764       332.55
 224.609   20.719  235.342       331.69
 164.537  144.805  168.084       329.23
 156.918  107.057  337.640       329.09
 102.751   17.893  269.221       328.37
 291.120   69.250   19.542       325.77
 252.758   61.588   20.740       321.94
 336.429   75.469  226.723       318.70
 108.333  143.666   32.949       312.49
 256.721   64.607   27.267       310.90
  84.836  164.336    3.878       310.54
 180.966  146.382  186.716       309.17
 332.341   28.735   30.186       308.45
  99.830   18.138  271.872       307.58
 174.387   72.604  300.368       306.42
   1.804  109.424  170.654       303.11
 196.610   81.133  324.543       298.20
 323.216  155.874  289.214       293.87
  60.924  114.457   99.769       292.14
 333.669   29.304  236.711       290.55
 291.279   62.636   51.925       287.23
 310.198  142.832  223.598       285.36
 354.423   90.676  168.634       281.17
  90.511  109.868  359.557       277.17
  44.720   43.981   34.091       275.18
   6.470   50.169  134.612       271.35
 177.245   24.672  235.237       271.07
 312.151   53.929   97.360       267.53
   8.227  121.184  342.073       266.88
 359.963  109.615  110.007       266.01
 254.531   36.130  326.893       262.19
   7.963  155.268  317.776       261.54
 341.977  118.748   99.170       252.01
 355.215  144.545  324.515       247.68
 195.458   76.647  219.928       246.24
 175.819   97.345  221.025       244.80
 293.649   55.052   55.364       244.22
  67.320  107.847  107.281       241.91
  92.342  141.783   14.044       241.62
 169.644   84.638  284.289       239.53
 111.284  134.460  130.022       235.63
  69.816   66.158  308.864       234.98
 224.324  122.017  207.604       232.82
 188.100  117.665  190.087       229.50
 352.943  160.443  342.222       226.03
 209.987   18.324  167.771       223.94
 252.564  100.545   48.464       223.43
  72.031  109.991  339.079       218.60
 164.998  144.370  181.107       216.94
 193.441   56.760    6.356       213.19
 165.262  164.990  167.871       211.31
 238.721  155.717  236.994       211.17
  91.395   65.909  307.721       210.23
 112.157   25.011  237.290       209.43
  52.672  106.375  111.821       208.71
 128.079   23.827  235.519       206.98
 326.089  146.524  283.237       206.11
   2.745   74.951  201.805       206.11
  78.685  126.675  131.140       202.65
 300.087  133.182  266.170       199.19
 110.957  113.484  358.209       198.46
 187.511   92.309  273.457       194.06
 122.724   79.226  275.955       193.99
 278.428  161.513  229.492       193.99
   6.844  151.914  302.922       193.99
 149.103  105.597  237.090       193.12
  25.942  144.160  323.788       191.39
  64.975   58.913  196.093       191.03
 170.561  144.285  173.388       190.31
 187.301   33.381  248.905       188.87
  52.355  118.944  340.520       188.36
 180.769  153.457  116.672       188.22
  87.472  100.608  133.546       187.51
 140.523  158.303    0.477       186.56
 220.619   59.039  269.933       186.43
  54.410  138.188   17.842       184.94
  29.704  122.633    6.253       184.75
 352.745  108.506  169.179       184.32
 172.134   63.596    7.283       184.32
 111.125   49.203   74.499       183.60
  99.143  102.134  314.879       183.40
 109.842  135.673   98.812       182.73
 301.030  117.034   73.434       182.73
 168.063   60.444  276.445       181.00
 180.407   91.766   68.123       180.13
  30.864  138.897  292.391       178.40
 272.514  129.390  254.386       177.92
 261.033  111.356   48.269       176.96
 348.818   83.454   40.032       176.67
 143.715  132.663  113.304       175.42
 189.643  117.576  192.177       174.07
 186.355   93.353  215.397       172.34
  81.777   38.006  291.064       171.91
 271.566  114.131  232.609       169.24
 100.399  108.682  301.811       167.62
 358.270  104.905  104.305       167.58
 351.032  136.091  291.487       167.14
 346.970   85.164  101.136       165.56
 335.344  145.999  243.097       164.54
  80.920  104.284  358.451       164.21
 336.460   73.086   81.534       161.95
  50.725   49.446  154.690       160.43
 310.604  142.648  223.816       160.21
 104.981   74.844  358.877       158.19
 302.151  108.279   81.662       157.62
 359.542   57.995  186.788       157.04
   4.684  114.024  347.188       156.75
 111.931  121.915  313.349       153.39
  39.902   33.247   36.568       153.29
 354.893   57.594  176.593       153.29
 331.249  176.128  304.150       150.69
  64.260   89.562  331.231       150.69
 358.136  155.529  308.045       148.09
 179.972   95.599  344.763       147.22
   4.540  104.952  201.477       147.22
  62.689   77.066  144.057       146.79
 174.225  116.000  124.986       143.33
   5.159   90.225   93.769       142.17
  73.619  110.852   98.969       142.14
   1.027   66.630  120.276       142.03
  77.034  102.855  100.437       141.45
 176.356   67.233  114.472       141.16
 359.873   97.086   88.855       140.73
  11.411  148.334  359.299       138.92
 176.395   27.354  180.346       138.85
  25.223  130.901  274.334       138.56
 175.727  126.503  108.650       136.09
 322.142   32.745  241.193       134.38
 359.939   78.262   86.598       134.23
 109.209  108.906   30.128       133.37
 102.405  109.269  303.758       132.65
 298.812  128.208  143.078       129.90
 104.813   79.670  321.896       129.55
  16.148   42.085  223.840       129.18
 207.433  134.907  228.000       128.54
 324.219  125.608  101.033       128.17
  62.575   96.326  358.781       126.66
   5.455   79.488  208.415       125.57
 293.150  140.185  226.576       122.98
  99.422   17.844  270.239       121.68
 189.244   71.042  268.732       121.24
 344.109   43.489  254.083       120.38
 356.487   58.241   11.241       120.38
 115.587  136.962  104.357       120.16
  62.012   82.133   14.945       118.79
 158.433   81.729  281.317       118.65
 244.174   62.867   13.494       117.42
 219.218  146.339  203.097       116.05
  27.551   83.643  176.616       116.05
 190.873   99.885  207.534       115.90
 236.726  144.190  253.275       115.89
  25.483   26.107  209.905       115.18
  61.915  151.572  349.312       115.18
  51.780  126.432   29.892       114.32
  31.057   33.084  181.471       113.59
 167.852   59.485  277.411       113.45
  48.502   69.247  184.731       113.02
 112.264   86.241  313.811       111.89
   0.846  109.175  350.549       111.72
 108.765   89.144  295.629       111.00
  41.750   30.527  192.489       108.50
  51.626  144.991   73.273       108.25
 168.991  120.843  357.963       108.25
 348.786   84.982  220.939       106.95
  79.342  126.541   12.100       103.92
   5.099  115.959  302.806       103.06
 258.640  111.473   47.502       102.60
 328.339   34.016   83.300       102.26
 227.991  129.818  224.915       101.32
  55.095  114.412   34.735        97.86
   0.170   37.418  230.592        94.40
 252.882   18.919   78.770        94.40
 242.793  102.167   36.975        93.82
  58.843   24.494  182.715        93.53
 318.969  153.897  227.620        93.53
 255.722   71.306   25.264        92.81
  91.625   44.795  126.130        90.93
   5.353  137.938  259.672        90.07
   6.603  155.239  317.556        89.20
   9.831  114.828    7.409        88.77
 221.510  147.945  346.770        88.33
 257.624   69.842   60.680        87.76
   3.856   89.996  154.651        87.61
 184.669  146.104  176.947        86.60
 120.756   26.750  257.618        86.60
  56.888   36.137  166.574        86.37
  47.609  138.236    5.045        86.31
 292.293   93.662  225.370        86.17
 211.665  151.684  235.400        85.74
 209.421  146.468  177.105        85.30
   2.498  117.969  187.987        83.28
   4.861   60.331  187.775        82.27
 247.570  158.553  260.313        82.27
 284.003  120.072   83.645        82.20
 303.887  121.004  255.895        80.83
  27.251  122.806  287.657        80.83
  14.754   34.070   62.279        80.68
  52.988  114.829  325.032        80.54
 112.333   85.501  134.532        80.25
 284.104   99.110  242.824        77.94
 309.917   83.141   88.915        77.94
 216.328  141.695  218.474        77.94
 246.244  118.095  239.813        77.15
  39.264   32.697  193.092        75.78
 158.103  134.671  154.681        75.63
 275.430  109.643   38.464        74.43
 124.003   77.175  164.464        73.61
 330.936   83.021  123.239        72.75
   6.888  124.942   30.549        72.31
  78.578   65.207    8.445        71.88
  32.292   24.673   26.328        71.75
 193.981  146.414  236.033        71.59
  91.481  109.139   59.189        71.17
 225.546   59.461   46.642        71.07
 275.312   16.682  302.483        71.01
  41.474   31.088  192.351        70.05
  93.272  156.539   61.180        69.33
  93.081   18.924  273.739        69.28
 280.169  105.834  254.109        69.28
   0.022   78.824  206.126        68.56
 238.716  155.451  236.425        68.45
  26.571   26.204  209.389        68.42
  25.485   26.123  210.285        68.42
 253.104   86.250   31.991        68.27
  69.775  105.569  355.519        67.84
 352.432   73.978   57.874        67.48
  25.286   26.134  209.900        67.41
 122.932   58.636  285.137        67.19
 137.073   79.036  279.386        65.82
  58.693   24.275  182.544        65.63
 351.147  113.907  180.628        65.24
  73.666  110.068  333.735        64.95
 186.697   31.485  157.962        64.81
 259.599  111.301   48.240        63.22
 191.480   30.835  237.862        62.50
  25.277   26.405  209.924        60.62
  72.798  119.575  339.877        60.62
 163.211   93.813  280.680        60.52
  41.584   31.607  192.663        60.40
  76.991  110.019  357.944        60.04
 190.739   74.417  264.102        59.76
 188.067  168.404  171.849        59.76
  47.500  149.653   10.308        58.40
  85.481  101.906  313.669        58.38
  16.540   91.309   84.484        58.31
 186.069   58.480  204.265        58.02
 112.454   55.225  273.130        57.16
  29.166   34.018  182.721        56.29
  58.669  134.841   12.088        56.29
  13.854   52.761  196.273        55.43
 261.609   18.651  195.693        55.43
  25.342   26.352  210.016        55.43
 348.403  117.364  153.169        55.43
 260.214  113.663   48.492        54.56
 173.743  125.616  169.838        54.56
  58.646   24.575  182.374        53.55
 284.210  102.095   73.451        53.48
 178.589   62.098  322.298        53.47
 139.439  159.428  357.850        53.33
 138.637   26.601   72.768        52.83
 341.360   85.917  260.753        51.96
 351.834  137.970  259.170        51.96
  56.138  129.459   20.224        51.96
 215.494  141.668  216.862        51.58
  78.508   65.371  308.454        51.02
  58.127   24.886  183.362        50.95
 293.188  122.394  266.423        50.23
 194.086  146.781  177.490        49.36
   9.769   79.274    9.853        49.36
 225.348   59.450   46.090        49.15
 192.445   38.432    4.684        48.85
  13.719  114.478  355.113        48.57
 312.937  105.906  257.389        48.50
 304.084  111.393   73.863        47.92
 244.482  115.570   65.850        46.91
  57.190   35.799  166.279        46.84
  25.243   26.579  209.596        46.77
 253.259  144.947  235.490        46.77
 112.406   55.088  274.681        46.77
  70.201   97.629  350.011        46.77
 205.390  153.558  210.293        46.48
 220.272   55.735   41.030        45.90
 297.345  108.025   81.302        45.90
 261.526  142.053  248.761        45.90
  25.496   26.025  209.715        45.90
  62.587   97.061  358.200        45.03
 175.504  122.525  184.002        45.03
 248.858  118.808  234.420        45.03
  95.149  101.743   10.005        44.89
 110.844   99.661  317.229        44.31
 129.310   96.896  331.717        43.30
   4.589   89.226  213.922        43.30
  45.338  120.125   73.212        43.30
 297.564  109.509  257.205        43.30
   4.194  112.541  346.511        42.87
 172.126  101.913   98.087        42.44
 174.513  126.993  167.805        42.44
 355.314  127.566  288.836        41.02
 280.259  105.936  254.406        40.70
  60.064   24.529  181.421        40.70
 117.488   77.938  156.130        40.70
   8.565  119.707  341.625        40.27
 128.116  111.324  273.164        39.84
 214.859  141.283  216.155        39.37
  60.141   24.574  182.570        38.56
   7.897   85.802  206.492        38.42
  14.597  140.548   15.917        37.86
 122.673   79.147  155.568        36.37
 190.461  134.315  180.388        36.37
 183.309  136.313  196.782        36.37
 157.999   78.451  289.337        35.90
 180.421   69.892    2.629        35.80
 201.570   59.292   40.048        35.58
   2.459   57.376  217.436        35.51
  29.279  150.620  311.847        35.51
 247.474   65.165   23.834        35.51
   2.659  112.522  302.357        35.51
 187.181  123.849  233.170        34.64
  36.119   38.863  201.583        34.64
 347.148  117.936  155.682        34.64
   5.123   60.835    8.380        33.77
 210.372  146.319  238.107        33.77
 174.630  122.615  183.219        33.77
 359.919  120.615  306.327        33.77
 139.200   25.634  312.437        33.77
   7.551  126.208  313.427        33.77
 166.471   62.218  264.996        32.91
 176.753   66.777  354.265        32.76
 284.010  120.032  262.464        32.62
 208.383   43.918  328.879        32.04
 194.317   48.152  169.788        32.04
  17.163   78.609  160.000        32.04
 289.695   67.318   20.182        31.61
 208.731   65.015  247.299        31.54
 206.190   45.714  113.953        31.47
 188.843   71.865  251.614        31.18
 335.736  140.733  245.964        31.18
 359.281   80.913  207.839        31.18
   6.825   90.007  159.346        30.89
 354.279   57.356  176.854        30.31
  58.645   24.423    2.915        30.31
 216.510  141.469  217.828        29.01
 280.965   52.907   45.897        28.87
  25.496   71.391  126.262        28.72
 243.967  111.365   28.633        28.70
 316.682  152.170  225.303        28.58
  85.162   56.490  341.095        28.22
  25.398   26.196  209.986        27.71
 186.011   58.601   24.213        27.71
  21.976  150.282  298.718        27.71
 201.696  120.485  193.798        27.71
  70.434  150.343   11.709        27.71
 219.183  147.633  226.347        27.21
 113.277   54.940  276.434        27.14
 349.979  116.663  153.139        26.85
 239.247  155.499  237.336        26.85
 220.132   56.064   40.331        26.56
 242.455  115.503  235.369        26.56
 206.391   46.302  113.841        26.13
 187.146  123.703  173.132        25.98
 111.965   68.103  165.372        25.11
  65.011  119.672  341.755        25.11
  25.516   26.102  210.058        25.11
  76.059   35.087  275.053        24.98
   6.094   60.910  187.741        24.68
  25.439   25.937  210.409        24.25
  44.759  120.149  253.894        24.25
  25.430   26.234  209.953        24.25
 181.214   99.412   92.316        24.25
 227.907   25.388  220.811        23.38
 176.157  147.405  167.474        23.38
   7.303  124.529   31.076        23.38
 202.667   59.278   39.644        23.09
 276.453   92.853   61.421        22.52
 123.462   28.491  255.072        22.52
 118.321  143.515  112.696        22.52
 239.526   45.600  107.480        22.52
  25.466   25.734  210.432        22.52
 205.332  153.818  209.378        22.52
 180.157  116.135  192.654        22.37
 306.204   61.370   68.211        22.22
  28.063  121.960  287.550        21.65
 347.779  117.468   95.769        21.65
 180.717   70.710  309.649        21.65
  73.827   35.401  303.253        21.65
 238.957   79.866   64.740        20.78
 335.025  146.123  242.993        20.78
 167.280   62.975  269.056        20.78
 330.478   82.435  125.255        20.78
 187.252  123.933  173.237        20.78
 209.046  146.151  237.288        20.78
 157.703   29.155  282.652        20.21
 168.377  139.358  165.582        19.70
  20.379  119.514  290.571        19.49
  25.804   45.417   11.326        19.34
 188.805   61.610  287.804        19.13
 215.091  141.500  216.259        19.05
 164.864  145.108  120.051        19.05
  75.839   96.469  346.696        19.05
  58.482   24.037  183.495        19.05
 165.330  144.234  121.051        19.05
 216.464  141.738  217.658        18.62
  58.552   24.262    2.940        18.19
 317.417  153.375  225.642        18.19
  58.878  100.316  355.053        18.19
 183.607  118.910  112.207        18.19
 177.924   28.503  267.598        18.19
 170.188  108.680  122.730        18.19
  35.820  168.420  357.663        18.19
 311.256   85.220   85.230        17.46
 210.830   65.317  239.518        17.46
 185.086   80.851   85.311        17.46
  25.169   26.239  210.859        17.32
  26.438   26.165  209.807        17.32
 216.211  141.631  218.708        17.32
  19.503  121.256  109.961        17.32
 353.973  144.708  325.071        17.32
 164.356  144.395  180.909        16.45
  56.215   40.260  186.074        16.45
 176.963  143.729   31.613        16.45
 213.413  141.000  214.918        16.45
 169.907  136.367  182.301        16.45
  58.541   24.460  182.825        16.45
  45.046  120.200   73.806        16.02
 185.053  102.771  209.074        15.73
 220.949  148.230  227.518        15.66
 205.517  153.926  209.786        15.59
  13.800  130.555    9.590        15.59
 185.525  119.509  172.069        15.01
  45.132  120.210   13.713        14.72
 346.971  117.967  155.653        14.72
  60.579   24.497  181.347        14.72
 249.938  113.209   57.612        14.72
 221.661  148.130  227.162        14.41
 351.158   62.768  189.875        14.00
 291.640   55.195   55.630        14.00
 129.099   96.791  331.883        13.86
   7.130  125.693  313.654        13.86
  25.133   25.509  210.922        13.86
 317.530  152.743  226.003        13.86
  44.800  114.341   29.137        13.86
 233.855   73.329    8.596        13.86
 201.580   60.511  249.237        13.78
 293.907  125.789  264.118        13.13
 297.802  108.826  257.993        12.99
 236.479  104.576   24.171        12.99
  30.630   33.505    1.677        12.99
  52.533  118.582  341.552        12.99
 172.826  109.634  170.469        12.99
 189.219   61.054  287.517        12.99
  27.728  122.354  287.573        12.99
 336.612   72.870  202.774        12.99
 221.155  148.554  227.922        12.99
 252.351   61.065   20.366        12.99
  35.849   38.553  202.331        12.99
   0.824   68.267  199.911        12.99
  27.931  150.750  310.560        12.99
 185.432  111.606  172.731        12.99
 171.034  109.041  123.829        12.99
  36.242   38.351  201.734        12.99
  25.733   26.056  210.377        12.99
  25.665   26.009  210.153        12.99
  74.578  110.308  267.420        12.56
  25.513   26.124  209.651        12.12
  25.839   25.844  210.563        12.12
 302.327  101.278  263.988        12.12
 155.990  107.136  336.963        12.12
 216.140  141.796  217.209        12.12
 187.165   55.183  269.147        12.12
 239.651  155.415  238.225        12.12
 259.186   96.036   59.543        12.12
 347.627  117.696  155.992        12.12
 191.087   29.265  185.464        11.40
 308.554   82.975  207.617        11.40
 123.523   91.555  152.164        11.26
  27.682  121.922  287.081        11.26
 176.950   95.678  215.154        11.26
 227.395   25.347  221.189        11.26
 331.952   39.739  255.096        11.26
   3.732   61.190  187.714        11.26
 216.167  141.746  218.469        11.26
 177.589   44.880  198.394        11.26
 178.538   71.363  249.717        11.26
 234.946   42.930   21.584        11.26
  25.887   25.797  210.645        11.26
  25.295   25.731  210.563        11.26
 123.239   91.216  151.980        11.26
  25.404   26.147  209.732        11.26
  14.414   81.187  152.085        10.66
  59.747   23.763    3.207        10.54
  59.111  135.340   12.383        10.39
 112.913  138.735  101.186        10.39
 349.664  118.997  146.147        10.39
 156.175  107.011  337.058        10.39
   7.237  124.824   31.007        10.39
 347.404  117.267  156.225        10.39
   2.565   56.753  247.467        10.39
 213.909  114.514  196.548        10.39
 122.673  138.794  345.906        10.39
 248.500  112.305   50.319        10.39
 353.931   70.894   59.547        10.08
  25.099   26.239  211.113         9.53
 205.002  153.992  208.912         9.53
 276.335  119.720   63.241         9.53
  70.443   97.894  349.714         9.53
 318.473  153.994  287.441         9.53
 167.213   62.389  263.348         9.53
  25.527   25.956  209.990         9.53
  25.045   25.437  211.018         9.53
  58.809   24.301  182.596         9.53
 139.313   25.940  312.271         9.53
 335.474  146.148  243.519         9.53
 242.976  115.135  235.673         9.53
 205.739  154.313  209.288         9.53
  27.580  122.428  287.654         9.53
  25.502   26.062  210.597         9.53
 165.476  151.943  169.765         9.53
 235.123  105.496   23.230         9.53
  41.830   31.237  192.773         9.53
 337.203   74.879  226.870         9.53
 306.064  102.681   76.887         8.66
 205.236  153.821  209.802         8.66
 167.655   62.505  264.165         8.66
 214.084  140.338  215.633         8.66
  25.476   26.084  210.225         8.66
  59.644   24.328  182.452         8.66
 205.551   67.333  101.554         8.66
 232.947  101.382  349.634         8.66
 175.045  121.794  183.382         8.66
 303.697   88.203  208.042         8.66
 357.064  113.433    6.020         8.11
 108.323  115.998  158.963         7.37
 294.676  117.069  235.923         6.28
  70.803  151.192   60.672         6.08
 164.686  144.435  180.323         6.04
 149.205   73.606   66.782         5.45
  92.757   87.380  346.313         4.29
 215.074  142.108  216.871         3.82
  13.450  107.809   15.085         3.61
   1.467   95.952   52.321         3.51
 185.433   36.946   11.882         3.20
 347.730   86.231  191.874         2.89
 218.578  147.390  226.240         2.81
   5.416   62.557  191.598         2.74
 125.897  119.698  352.911         2.72
 332.723   73.887   22.272         2.67
  45.798  121.182  312.525         2.65
  19.312  121.192  289.874         2.60
 126.376  119.046  172.449         2.54
 344.105  149.569  260.421         2.53
   6.689   46.936   58.657         2.53
   6.358   87.988  145.526         2.45
   7.766   62.203  221.554         2.45
 189.834   64.142  350.390         2.31
 326.751  103.626   80.782         2.31
 258.648  131.170  257.047         2.24
  29.837   85.619  171.356         2.24
 166.507  143.731  122.334         2.09
 195.011   94.239  335.528         2.09
 336.407   83.228   53.892         2.07
 358.848   33.319  227.113         1.95
  94.219   50.034  344.760         1.88
 313.471  148.974  227.930         1.88
 295.036   62.304   11.924         1.78
  19.577  121.165  109.681         1.73
 138.882  141.925  177.651         1.73
 293.240   55.565   54.282         1.66
 220.335  148.162  227.247         1.59
  28.847   84.702  171.969         1.52
 101.601  138.730   93.729         1.15
  26.912   45.214   10.052         1.15
  42.697   32.584  333.788         1.01
 344.421   36.141  241.355         1.01
 343.953   28.972  192.528         1.01
 138.967  142.160  358.260         1.01
   9.609  116.568    8.746         1.01
 216.375  141.570  218.752         1.01
 220.778  147.796  228.046         1.01
  19.427  121.284  109.979         0.87
 287.597  117.016  240.925         0.87
 352.623  115.613  352.503         0.87
 151.262  140.228  345.313         0.87
 184.448   44.363  171.585         0.87
