TEXTURE AT STRAIN = 0
1.0   1.0   1.0
DISCRETE TEXTURE FROM ODF FILE VPSC_Texture\RD_EBSD_Initial.TEX
B 1318
  12.019  159.847  218.171      1245.34
 301.930  144.051  194.707      1060.88
 260.000   29.189  134.560       970.81
 100.483   21.825  224.130       916.25
 277.801  154.055  101.642       876.42
 120.353   27.269  256.335       832.25
  87.541  166.115   19.814       794.72
 151.527   25.621  168.678       790.68
  19.456   37.508   58.845       789.82
 157.111   24.533  247.402       775.96
  87.851   30.825  290.737       725.87
 107.589  130.760   97.849       691.95
 120.635   13.786  325.985       688.49
 167.518  164.522  276.274       664.24
  93.065  151.850  110.908       657.31
 291.888  145.801  137.339       644.32
 356.222   33.880   49.686       639.99
 341.779  147.803  170.114       637.68
 275.701  149.211   90.963       627.87
 286.712   22.529  102.542       592.94
 224.787  145.531  346.890       575.91
 329.721   27.447   38.100       574.17
  16.793  149.878  219.514       571.29
  38.219  153.143  209.662       543.00
  46.171  141.247   84.543       538.67
  58.322  144.741  264.587       518.32
 286.276   44.113  259.011       514.71
  85.928   28.848  313.839       511.82
 139.557  172.600  322.163       511.82
  90.254   39.147    6.145       507.55
  87.904  144.210  283.550       504.89
  48.094   35.377   20.816       502.44
 342.322   34.925   60.243       501.43
 198.483  157.594  297.999       498.83
 344.145  166.346  177.108       496.23
 341.668  151.715  208.981       490.17
 277.404   40.259   87.868       485.84
 314.773  137.791  210.894       467.65
 235.734   38.689  306.454       459.86
  59.313   25.143  306.017       456.40
 303.580   42.943   74.618       454.37
 331.543   28.967   27.355       452.07
 225.576   54.962  318.288       451.78
  48.737  145.816  203.684       447.30
 336.893  147.093  199.609       444.27
 299.487   17.676   72.251       440.81
 209.495  150.522  290.875       439.94
  50.052   36.666    6.439       439.94
 236.515   28.947  124.894       433.01
 192.081  147.618  198.802       430.41
  18.841   31.161   23.123       429.55
 326.834  150.293  158.026       426.59
 195.741   40.133  166.281       426.08
  11.072  142.269  231.115       422.62
 300.780   28.700   73.837       421.75
 168.721  161.372  174.785       419.16
 233.253   15.485   55.746       417.42
  72.753  156.164  280.302       416.56
 203.895   46.056  165.813       403.57
 199.186   35.926  171.884       403.57
 319.556   16.370   74.041       401.84
   0.654   26.718   52.524       400.10
 319.717  147.554  147.289       399.24
 303.439   19.920   63.973       395.77
 337.527  150.340  178.361       395.77
  73.743   20.832  340.353       395.70
 215.201   42.464  261.731       391.44
  28.762   33.390   33.347       391.44
 294.271   19.039   76.713       390.72
 248.236   21.235  113.012       389.71
 242.361   35.680  327.743       387.11
 107.458   26.858  277.780       385.38
  68.725  136.365  270.358       383.07
  53.096   38.717   13.882       380.19
 307.676   14.576   81.907       379.32
 331.594   39.150   68.325       377.59
 309.455  155.453  153.020       374.99
  32.792  157.355  234.042       374.12
 220.777   18.093  214.346       373.40
 185.743   21.032  208.363       373.26
 351.683  151.224  239.770       373.26
  44.598  152.149   81.332       372.39
  75.933    0.888  309.973       368.93
 203.473   23.528  180.031       368.06
 293.891   34.114   59.420       365.46
 121.204  145.506  121.430       363.44
 242.477  147.648   98.382       363.15
 183.547   27.421  185.557       362.00
 134.585   26.792  262.296       360.27
 220.951  149.506   97.789       360.27
 317.451  139.649  155.422       360.12
 161.428   19.244  226.704       359.40
  24.352  158.701  204.581       358.54
 337.421   24.386   68.259       357.60
 336.029   44.449   68.778       355.07
 300.036  138.915   92.983       354.78
 323.000  142.567  163.979       353.92
 140.562  148.073  166.564       352.47
  28.059   30.357   43.042       351.90
 118.559   16.636  315.008       349.01
  96.083  148.776  259.898       342.08
 147.216   33.505  166.636       341.21
 256.473  145.173   86.035       341.21
 346.229   29.090   31.994       340.78
 353.946  140.855  224.688       338.62
  44.911  143.832  215.837       338.54
 111.004   22.414  306.375       337.75
 286.221  140.720   89.044       336.45
  27.285  149.760  211.796       333.42
 259.132  150.327  114.015       332.55
  21.196   36.609   54.128       328.22
 101.665   30.319  353.648       324.76
  52.136  159.975  239.375       322.16
  92.447  172.611  287.631       321.30
 332.419  139.648  204.292       319.85
  93.483   25.624  292.411       319.56
  74.192   45.531  227.622       315.23
 353.778   30.698   31.324       315.23
 137.280   32.555  288.394       314.37
 284.114   29.691   94.657       312.64
  88.222   39.664    8.855       307.44
  96.349   58.208  178.517       307.44
 277.758  150.274  162.030       304.84
   5.809  149.871  219.735       304.84
  75.377   43.151  354.133       303.83
 295.567   32.606   70.047       302.24
 150.363  148.050   90.418       302.24
   4.144  145.947  211.811       301.38
  53.596  136.412  238.305       299.64
  17.164  152.190  234.231       290.98
 351.865   28.052    3.737       290.98
  76.461   15.843  279.964       290.12
 337.498  135.157  179.462       288.39
 146.766  147.601  286.022       286.65
 285.267   45.433   79.371       284.92
   0.887  149.302  222.189       280.59
  51.717  163.994  250.680       279.73
 219.759   34.502  246.223       278.86
 219.978   36.652  162.401       278.57
 164.203  138.009  170.933       277.99
 159.598   19.656  189.616       275.40
 349.030   52.359   19.743       273.66
 191.054   29.018  145.690       273.66
 234.541   47.173  297.397       271.64
 101.741   20.214  262.253       269.33
 326.706  156.602  151.615       267.60
  88.298  138.732  258.753       264.14
 131.247  131.973   76.716       263.27
 336.168   38.956   65.682       263.27
  19.786   51.896   15.290       262.84
 341.177   28.730    1.595       262.26
  23.742  116.045  208.320       261.54
 157.776  134.434  142.210       260.82
 215.697  164.741  217.267       260.67
 146.765  153.614  295.787       260.67
  17.666  155.422  208.114       260.67
  59.141  168.393  244.016       259.81
 265.896  150.811   53.084       259.81
  13.461  132.321  214.167       258.08
  76.222  148.963  271.124       257.21
  71.698  148.648   70.939       257.21
 326.595  141.636  196.582       256.34
 221.624   18.482  187.841       255.48
 218.510   87.941  155.450       255.48
  55.026  140.325  248.675       253.75
 195.267   31.036  170.816       249.42
 144.334  150.710  287.058       246.82
  31.747  145.215  237.809       245.95
 343.491  149.584  230.116       245.95
 119.028  157.495  121.263       245.95
 113.471  137.415  114.151       245.09
 347.054  141.208  233.496       241.62
 303.310   18.938  147.113       239.89
 220.482  171.513  220.168       239.89
 191.207   12.420  168.790       238.16
  47.918  149.114  226.179       237.29
 117.371  155.231  128.740       237.29
 104.267   24.157  347.357       236.57
 234.169   41.320  299.054       236.43
 292.483  149.544  183.953       236.42
 322.317   43.591   69.708       235.56
 159.554  152.988  156.978       235.56
  70.690   20.431  328.783       234.84
 265.768   29.507  275.919       234.69
 264.533   17.930  111.403       232.96
   1.227   19.512   31.410       232.82
  60.809   27.346  348.685       232.09
  27.118   29.683  334.571       231.23
  32.376   21.632   43.788       231.23
 341.813   23.249   19.584       230.36
 216.058  143.604  349.670       230.07
 189.370   31.855  297.096       228.63
 333.324  143.619  151.381       228.63
 328.405   34.035   96.641       228.49
 305.277  159.202  134.897       227.76
 348.571   39.999   56.214       227.76
  17.526  138.583  212.461       226.90
 263.197  151.977   99.562       226.18
 272.569  148.171   27.504       225.17
  84.230   37.486    6.127       223.43
 353.525  145.887  230.748       223.43
  47.276   23.272  330.590       223.43
 306.487   32.784   93.574       222.57
 294.483   23.345   96.325       221.99
 335.137   19.214   61.842       221.70
  44.575   39.103   11.124       221.70
  12.598   31.910   52.602       220.11
 186.575   31.462  181.425       218.24
 307.086  138.990  156.409       217.37
  49.183   27.848  335.922       213.04
  61.443   26.745  344.346       212.46
 357.529  137.361  224.782       212.18
  25.913  155.092  236.100       211.31
  78.077  152.070   50.720       211.31
  68.638   13.027   19.386       211.31
  21.711  139.294  216.331       206.98
  70.136   43.572   12.695       206.98
 319.210  153.826  151.328       204.38
 174.869   37.327  201.427       204.38
  12.648   34.778   53.872       204.38
  10.017  144.757  233.333       202.65
 213.925   26.472  281.996       202.65
  54.914   18.552  347.092       201.78
 305.331  146.015  130.531       201.78
 219.845  151.018  220.305       201.78
  40.815  142.171   70.655       199.19
 247.942   23.365   37.739       198.32
  19.421   35.039   33.185       197.45
 185.089   29.094  169.213       197.45
  72.243   14.796  340.924       195.72
 221.295   32.479  108.969       195.72
 357.437  174.853  190.332       193.41
 155.275  145.115   89.052       193.12
 240.283  130.755   21.173       193.12
 174.064   35.113  198.089       190.53
   4.303  154.766  189.496       189.66
 237.345  149.607  349.553       188.79
   4.700    6.641   11.602       188.79
 267.608  135.064    1.533       186.77
 356.065   33.109   60.310       186.20
 196.264  149.213  183.800       185.33
 269.636  147.817   63.282       184.46
 181.628   46.793  295.473       183.60
 130.185  151.734  128.996       182.73
 214.247   32.964  104.117       182.73
 193.473  144.988  344.954       181.00
 344.986   26.550   66.209       181.00
 175.332  137.537  194.034       181.00
 292.559   24.509  104.208       181.00
 284.309   51.713   76.484       180.71
 254.547   16.902  119.590       180.13
  50.681  151.775  262.325       180.13
 335.346  151.298  242.075       179.27
 113.961  152.403   18.093       178.69
   7.461  149.221  235.068       178.40
 178.618   25.937  195.358       178.40
  76.583  147.402  276.194       177.54
 348.689  139.708  179.358       177.54
 111.678   41.985  339.531       176.96
 220.172   39.595  307.700       176.67
 157.195  135.925  303.937       175.80
 353.619  139.711  218.403       175.80
 359.822   30.774   40.543       175.23
 328.156   38.545   68.357       174.94
 200.245  158.388  346.397       174.79
 128.937  135.901  153.166       174.07
 118.456   24.825  249.266       173.35
 346.872   25.115   61.212       173.21
 227.223  150.469  140.442       173.20
 255.951   37.313  310.003       172.34
 125.959  134.382  139.889       171.47
  81.005   31.658  301.619       171.47
 305.803  162.486  183.372       171.47
   8.902   45.280   42.276       170.61
   6.849   20.240   30.934       169.74
  37.665   32.966   14.902       169.74
 297.769  137.889   40.534       168.88
 114.815   18.247  252.182       168.88
 214.429   28.866  165.969       168.87
  18.776  151.046  205.382       168.87
 159.138  155.786  122.306       168.87
  88.428  142.907   76.551       168.87
 357.631  151.165  228.190       167.14
 205.796  148.361  337.057       167.14
 113.287  134.434   76.886       167.14
   5.258  156.983  195.186       166.28
 351.724   40.449   23.772       166.28
 351.854   21.382   63.404       166.28
  82.534  145.652  240.509       166.28
 111.011   19.135  307.168       165.41
 301.834  148.882  193.094       165.41
 320.651   19.953  110.526       165.41
  58.524   45.015   22.940       164.54
 178.444   10.418  210.843       162.81
 179.559  148.771  155.520       162.81
 174.993   14.749  239.297       162.81
 167.392   21.827  189.898       162.81
 303.631   32.336   71.941       161.95
 204.487  123.693  345.285       161.95
 337.657   51.721   82.769       161.95
 201.519   67.323  158.655       161.08
   5.553  135.791  218.415       161.08
 171.574   20.279  168.292       161.08
 267.661   42.790  116.940       161.08
  81.491   14.749   12.878       161.08
 329.906   28.681   37.419       160.21
 268.915  156.252  150.586       160.21
  88.621   23.143  331.152       159.35
  77.873  167.967  243.795       159.35
 162.281   48.289  270.290       159.35
  79.938   26.959  256.062       159.35
 161.979  157.936  313.269       159.35
 338.894   32.165   61.630       159.35
  98.280   41.146  336.542       158.48
 157.849  158.567  121.542       158.48
 289.589   28.250   83.631       158.19
   2.936   44.904   30.674       157.62
 313.720  145.699  167.055       157.62
 186.754   20.094  192.303       156.75
 249.438  149.782  159.083       156.75
  15.724  157.899  186.896       156.75
 138.131  138.032  133.525       155.88
 244.874   87.233  284.341       155.02
  86.683  148.476  249.830       154.15
 266.586  156.306    9.073       154.15
 179.361  161.267   32.632       154.15
 201.831   30.931  171.881       153.29
 134.838  141.347  284.243       153.29
 330.846   31.407   69.180       153.29
 147.770   23.523  172.196       152.42
 253.510  169.671   40.875       151.55
 267.560  145.777  261.497       151.55
 260.497   31.240  129.409       151.55
  93.208  159.760  136.696       150.69
  90.159  160.449  306.068       150.26
 304.754   39.694  241.132       149.82
 284.544   64.593  262.328       148.96
  60.472  148.484   72.763       148.96
 163.142  149.949  309.668       148.96
 339.189   52.188   71.886       148.81
 321.988  157.054  179.563       148.09
 239.905  163.502   80.080       148.09
 152.785  143.585  112.155       148.09
 257.981   30.965  291.012       148.09
 326.904  144.526  216.608       148.09
 352.729   30.134   13.772       147.22
  24.871   53.507   22.451       147.22
  28.474   34.282    3.401       146.36
 258.588   17.523  105.213       146.36
 170.703  147.522  161.413       146.36
 114.581  153.494   78.146       146.36
 196.306   56.485  285.477       145.78
 351.729   28.810   19.007       145.49
 259.249  164.690  108.565       144.63
 280.787  142.334   98.603       143.76
  25.793  139.259  210.422       142.89
 145.217   43.297  324.159       142.32
  47.385  139.412   60.587       142.03
   4.787   35.082   42.270       142.03
 324.895  150.943  207.284       142.03
 305.207  154.000  138.436       142.03
 346.832   25.146   70.456       142.03
  52.051   30.043  353.970       141.74
 255.387   27.915  259.465       141.16
  76.035  152.492  100.784       141.16
 173.678   27.911  176.569       139.43
 348.155   14.624   65.599       139.43
 128.509  138.099  143.704       139.43
 273.190   29.582  100.480       138.56
 198.328   20.396  104.535       138.56
 106.790  141.878  110.942       138.56
 306.539   30.232   86.759       138.56
 170.786   45.551  174.266       137.70
 209.592   28.809  116.403       136.83
 318.855  130.493  192.699       136.83
  14.682  150.795  205.152       136.83
  51.455  157.717  253.342       136.83
  81.782   46.313   46.058       136.83
 111.525  158.794   48.598       136.83
  82.941  115.743   88.484       135.97
  25.329   36.135   34.878       135.97
 280.319   25.462  132.607       135.97
 122.644  156.900  268.998       135.97
  52.271  153.276  220.879       135.10
 194.019  143.728  167.876       135.10
 359.238  157.008  202.218       135.10
  39.958   28.518  345.847       134.23
 352.048   12.780   77.432       134.23
 286.428  140.629  155.090       134.23
 331.869  135.406  148.455       133.35
 247.955   51.750  317.958       132.50
  26.921   31.931   41.769       132.50
 345.249  138.839  216.339       132.50
  48.228   39.406   32.238       131.64
 311.312   45.204  115.547       131.64
  26.874   32.465   50.726       131.64
  40.781   30.162  345.155       130.77
 179.029   26.135  166.692       129.90
 165.870   24.456  191.967       129.90
 143.933   26.937  136.348       129.90
 207.694  175.907   27.487       129.90
 279.211  128.012  189.808       129.90
 156.180   38.896  279.924       129.90
 268.555  149.016  114.870       129.04
 315.539  157.381  174.526       129.04
 143.471   39.376  261.636       129.04
 304.232  141.214  192.292       128.60
 337.889   26.301   40.100       128.17
  72.454   39.178    6.423       128.17
 112.290   32.727  159.800       128.17
 356.362   36.754   62.498       126.73
 211.222  151.272  152.595       126.44
 294.287  177.619  130.766       126.44
 319.331   19.945   13.465       125.57
 334.201   26.316   88.578       125.57
   5.598   34.839   40.025       125.14
 331.333  155.918  228.343       124.71
 224.094   36.977  123.461       124.56
 358.240   32.941   41.919       124.42
 277.539  143.516  173.067       123.84
 213.541   23.804  139.822       123.84
  80.759  147.760  115.316       123.84
  17.200  146.547  217.035       123.84
 122.248  148.595  128.871       122.98
 120.501  151.734  266.491       122.98
 136.356   22.513  300.823       122.98
 166.673   41.789  161.645       122.11
  52.200   44.551   18.607       122.11
  71.883   22.125  329.550       121.24
  43.535   34.224  335.197       121.24
  40.998   38.631   38.936       121.24
 256.888   53.941  299.204       121.24
 196.664   44.842  154.277       120.52
   4.674   22.230   44.268       120.38
 265.850  141.264  168.085       120.38
 356.282  139.879  234.994       120.38
 328.011   20.199   53.137       119.51
  98.824  140.925  270.564       119.51
 178.310   29.127  183.835       118.65
 334.490  144.904  206.466       118.65
 275.516   32.458  141.877       117.78
 172.574  142.701  292.070       116.91
  57.017  154.257  269.601       116.91
 153.821    6.439  242.763       116.91
 270.503   26.804  118.808       116.91
 283.608  147.054  111.140       116.34
 231.622   39.524  128.276       116.05
 126.640  139.097  139.699       115.18
 353.501  146.223  210.821       115.18
 120.287  150.716  125.229       115.18
   5.324   28.116   27.818       114.75
 309.154   34.858   79.610       113.45
  26.169   26.239   34.243       113.45
 340.383  140.365  183.815       113.45
 259.752  150.608  176.187       113.45
 123.454  136.101  114.616       113.45
 200.562  144.862  340.102       112.58
 122.587   33.229  243.723       112.58
 157.918  144.043  121.158       112.58
  32.592  141.344  260.313       111.72
 105.692   32.559  254.030       111.72
 344.984    5.711   35.152       111.72
  28.759   39.181   28.764       111.72
 181.236   29.081  289.583       110.85
  82.025  145.573  249.838       110.85
 167.923  141.907  135.125       110.85
 183.788  142.095   73.983       109.99
 145.006   24.560  266.410       109.99
 270.637   42.549  110.102       109.99
 287.432   44.694  165.912       109.99
 357.625  147.146  223.713       109.99
 151.753   77.493  160.154       109.99
 141.892   29.841  232.137       109.12
  11.090   52.222   38.606       109.12
 273.022   14.365  126.838       109.12
  84.544  131.972  277.276       108.25
 330.393  145.737  157.650       108.25
 300.554   24.859  103.161       108.25
 347.891  160.728  251.911       108.25
  25.154   54.145   28.254       108.25
  40.352  148.372  235.215       108.25
  21.494  146.630  212.771       107.39
 143.707  145.130  133.843       107.39
 131.039  124.841  130.084       107.39
 257.569   38.248  132.493       106.52
  68.459   33.692    7.385       106.52
 351.174   10.632   12.616       106.52
 274.163   31.227   87.595       105.66
 132.063  127.609  141.251       105.66
 185.894   30.920  188.378       105.66
   4.665   29.559   23.547       105.66
 315.242  149.613  133.111       105.37
 250.994  158.111    7.887       104.79
 111.352   14.781  277.938       104.79
 318.091  148.610  205.365       104.79
 134.529   25.971  179.948       104.79
 284.742  154.431  124.414       103.06
 309.504  132.788  196.522       103.06
 258.011  148.876  357.965       102.19
 307.724   29.748   97.332       102.19
 318.219   33.333   41.230       102.19
 120.237  141.804  123.700       102.19
  71.284  138.854  271.624       102.19
 279.792  140.816  244.036       102.19
 195.854  120.211  345.990       102.19
 115.724  135.636  134.811       101.33
  87.848   30.970  286.719       101.32
 334.283  146.890  188.430       101.32
  59.014   29.483   30.371       101.32
  64.372   38.315  344.263       101.32
 342.136   38.838   60.886       100.60
 295.633  147.216   98.737       100.46
 304.082  129.119  198.874       100.46
 344.882   40.748   28.370       100.46
 206.523  141.134  339.304       100.46
   2.942  166.565  196.554       100.46
  66.535   37.930   46.945       100.46
 342.955  137.111  215.534        99.88
 212.921   32.708  180.734        99.59
 217.180   36.106  176.582        99.59
  62.959  155.809  278.529        99.59
 327.384  146.889  204.020        98.73
  10.242   28.443   29.744        98.73
 304.270  142.395  153.886        98.73
 251.974  121.318  171.221        98.73
 133.861   48.210  323.870        97.86
 217.045  155.972  107.074        97.86
 219.441   43.164  157.221        97.86
  76.647  151.277  251.647        97.86
 181.038  156.526  200.260        97.86
 231.630  135.600  129.615        97.86
 356.008  107.803  218.970        97.86
 233.213   37.131  115.929        97.28
 181.391   25.351  161.986        96.99
 256.386   46.877  294.667        96.99
  90.482   40.383    6.240        96.99
  47.590   16.860  327.281        96.99
  74.191  143.398  252.485        96.99
 150.469  138.364  208.765        96.99
 233.143  124.866  348.514        96.99
 358.461   24.596   32.492        96.99
 127.287   34.076  260.668        96.99
 266.802  130.847  191.296        96.56
 357.880  150.630  205.392        96.13
 287.591   31.153   94.007        96.13
 157.540  155.936  120.773        95.26
 279.380  148.569  102.774        95.26
 101.074  139.046   96.720        94.40
 347.530  126.555  202.620        94.40
 269.640  104.757  254.028        94.40
 139.974   29.077  228.860        93.96
 130.520   22.662  244.449        93.82
 136.869   11.061  285.394        93.53
 247.006   35.831  322.992        93.53
 199.571  141.356  339.848        93.53
  93.817  159.193  253.387        93.53
 356.754  142.566  203.596        93.53
 310.564  141.974  145.038        93.53
 236.055  145.754  155.186        92.66
 291.134   23.211  111.011        92.66
  19.302   50.673   34.905        91.80
 123.761   25.883  245.727        91.80
 322.403   28.752   95.113        91.80
 255.160   41.032  288.298        91.80
 347.913  140.998  202.382        91.80
  24.969  155.807  211.317        91.80
  39.687  155.061  263.899        90.93
  71.951  157.199  280.124        90.93
  85.711   54.807  298.770        90.93
 104.528   33.220  305.497        90.07
  20.486   21.246  356.055        90.07
 198.420  137.494  343.168        90.07
  83.392  153.522  117.095        90.07
 244.124  154.242    3.357        90.07
 211.814  152.661    4.748        90.07
 218.217   32.022  160.329        89.20
  45.067   26.433   19.371        89.20
 148.705  148.152  153.534        89.20
 291.688  151.449  104.180        89.20
 173.246   32.001  253.974        89.20
   3.581   40.222   61.985        89.20
 264.374   31.425   92.685        89.20
 309.853   26.428  102.654        88.48
  19.581   64.262   32.000        88.48
 140.328  137.199  140.829        88.41
 101.919   42.958  353.704        88.33
 110.006   32.412  323.456        88.33
 327.267  138.354  147.729        88.33
 279.190   36.027   39.800        87.47
 117.682   40.989  207.934        87.47
  95.254   37.037    1.474        87.47
 288.800  156.260  163.036        87.47
 205.997   29.717  286.573        86.60
 353.832   41.938   46.138        86.60
 332.123  141.469  148.259        86.60
 326.043  129.060  211.792        86.60
 342.689   41.640   25.836        86.60
  24.151  139.883  243.941        86.60
 301.763   55.643   86.667        86.03
 331.837  153.889  176.670        85.88
 109.019  126.791  149.155        85.74
 299.076  151.093  163.441        85.74
 256.592  142.088   85.146        85.74
 137.867   19.896  310.824        85.74
  55.452   38.309  337.759        85.59
 249.592  126.219  328.521        84.87
 188.699  136.881   99.704        84.87
 178.865  160.509  189.611        84.87
 262.435  154.456  133.242        84.44
  70.558  137.418  202.679        84.00
 272.160  134.823  155.138        84.00
 265.108   54.043  277.695        84.00
 260.085   37.425  297.428        84.00
  69.490  146.600  223.312        84.00
 254.094  141.579   41.156        84.00
   2.826  157.083  205.548        83.14
 293.383   29.907  101.839        83.14
  84.088  132.652  290.434        83.14
 342.836   53.334   73.101        83.14
  62.296   49.994  121.819        83.14
  12.703   36.881  335.152        83.14
  90.356  114.259   70.323        83.14
 132.682   53.229  329.919        82.27
 308.253  161.631  146.483        82.27
 333.867  141.749  201.374        82.27
  68.368  164.168  281.318        82.27
 314.372  131.166  189.250        82.27
 187.985   33.967  130.801        81.98
  79.995   26.318  236.253        81.55
 189.251  141.417  160.426        81.55
 319.645  147.118  144.860        81.41
 188.766   27.008  201.005        81.41
 213.863  150.931  346.290        81.41
 153.432  150.324   97.417        81.41
  21.609   41.309   28.569        80.54
 294.339   27.589   63.181        80.54
 201.194   35.684  183.290        80.54
 254.706  160.801  146.979        80.54
  61.711   25.081   32.601        80.54
 111.610  166.117  291.411        80.54
 279.060   45.390  136.161        80.54
  87.661   48.013    4.751        79.82
 323.041   22.134   42.318        79.67
  65.397  134.393  265.251        79.67
 262.353   32.531  132.018        79.67
  62.340  147.069   73.952        79.67
 142.481  148.125  133.865        79.67
  34.285   40.118   46.238        79.53
 244.805  149.544   37.392        78.81
 335.924   17.512   73.166        78.81
 136.677   34.095  290.140        78.81
 288.178   52.327  255.374        78.81
 351.144  164.292  179.048        77.94
 280.225   36.728  107.668        77.94
 260.922   35.007  268.420        77.94
  29.423   23.382   47.180        77.94
  73.393  154.484   83.384        77.94
 306.031   31.470   86.441        77.94
  56.856   38.071   18.580        77.08
 215.528   42.726  152.615        77.08
  58.913  162.422  243.403        77.08
 191.212   36.592  171.033        77.08
 342.622   28.803   54.017        77.08
 263.329   50.756  117.064        77.08
 162.195   27.794  180.583        77.08
   1.271   25.974   16.380        76.21
  84.615   33.344  299.829        76.21
  40.669  161.421  199.582        75.34
 297.620  138.945  103.576        75.34
 166.843   32.942  161.298        75.34
 255.541   54.981  281.963        75.34
 154.737  134.527  140.841        75.34
   6.194  149.826  236.009        74.48
 242.864   22.656  185.259        74.48
 158.591   35.520  186.644        73.90
 118.873   36.915  319.242        73.61
 229.376   38.549  143.580        73.61
 339.336  149.544  187.002        73.61
 217.654   19.233  193.080        73.61
 313.253  141.002  175.127        73.61
 108.313  133.728    7.036        72.89
 113.176   33.784   14.859        72.75
 208.473   59.069  171.317        72.75
 111.693   33.575  275.287        72.75
  33.097   29.418   17.747        72.75
 131.875  150.049  131.099        71.88
 306.256   25.027   91.225        71.88
 191.896   30.252  290.905        71.88
   3.328  138.455  241.362        71.88
 125.368  157.048  288.031        71.88
 115.155  140.090  129.928        71.88
   0.038  148.792  222.956        71.88
 292.214   23.476  130.873        71.01
 222.741   44.980  320.962        71.01
 238.911  179.127   78.761        71.01
 338.856  150.978  201.546        71.01
 256.475  131.602  357.413        71.01
 337.500   46.116   13.520        71.01
 211.793  160.814  205.003        70.15
 268.984   42.203  124.892        70.15
 246.206  158.989  131.955        70.15
 353.095   17.776   30.237        70.15
 107.625   22.589  318.556        69.28
 176.087   12.056  224.232        69.28
   2.794   38.712   33.145        69.28
  47.193  151.954  262.091        69.28
  19.504   46.252   55.015        69.28
 272.753  160.702  121.265        69.28
 140.594  116.642  327.688        69.28
 245.338   43.677  235.088        69.28
 298.159  140.451  183.241        69.28
 349.201  155.756  203.562        69.28
 341.573   34.822   38.574        68.85
  82.984  142.404  294.881        68.42
  35.409   53.596   25.436        68.42
 285.059  128.369  188.380        68.42
 115.424  136.731  140.212        68.42
 143.128   19.269  219.647        68.42
 337.252   32.356   75.785        68.42
 318.846  149.687  173.061        68.42
 354.819  149.290  220.347        68.42
 222.471   34.845  289.027        68.42
  68.346  154.437  121.408        67.84
   4.254   41.016   24.639        67.55
  49.964   27.293   36.128        67.55
 218.845  156.869  355.717        67.55
 269.836   45.725  121.158        66.83
 341.474  158.131  212.121        66.68
 114.242   37.575  197.530        66.68
 245.094  136.009  347.157        66.68
  23.584   32.903    7.933        66.68
 351.291   21.689   39.648        66.68
 116.446  134.719  149.018        65.82
 273.734   10.916  132.652        65.82
 252.650  139.734  259.557        65.82
 269.480  151.686   82.713        65.82
 200.405   41.334  301.964        65.82
 296.468   38.505   96.025        64.95
 153.863  146.927   30.200        64.95
   2.040   31.803   22.941        64.95
 127.406   30.645  266.947        64.95
 248.897  158.527  358.586        64.95
 351.532  149.811  188.501        64.09
 206.503   24.256  176.110        64.09
  99.025   53.809  210.160        64.09
 313.740   27.996  105.622        64.09
 286.581  172.251   84.238        64.09
 109.397  139.605  104.925        64.09
  65.736  161.986  112.038        64.09
 250.754   23.624   97.470        64.09
 122.081  154.175  329.863        63.22
 114.663   36.328  263.139        63.22
 225.220  153.503  341.524        63.22
  29.088  147.364  265.784        63.22
   5.260   57.856  216.313        62.40
 121.092  145.685  101.345        62.35
 277.550  140.726  171.454        62.35
 254.326  146.483   57.044        62.35
 101.935  151.884   91.447        62.35
 339.292   21.320   43.107        62.35
 350.595  140.861  211.220        61.78
 225.327   20.459  149.346        61.49
 122.018  139.978  116.075        61.49
 337.080  129.133  219.459        61.49
  89.272   31.100  342.223        61.49
  91.451   24.363  287.669        61.49
 110.795  138.722  115.599        61.49
 284.649   44.918   83.541        61.49
 181.423   29.393  171.526        61.20
 215.328   41.782  244.504        60.77
 197.464   50.289  205.373        60.62
 328.941   84.727  260.610        60.62
  25.219   32.370   47.810        60.62
 245.846  138.274  348.749        60.62
 204.260   34.574  278.918        60.62
 305.200   50.288   82.855        60.62
 260.716  162.482   43.417        60.62
  72.477  132.415   97.466        59.76
 236.113   31.756  200.120        59.76
 168.916  157.205  177.579        59.76
 178.353   31.042  243.049        59.76
 161.753   36.162  276.008        59.76
 292.804  133.403  163.882        59.76
 201.348   42.251  188.550        59.76
 137.033   43.454  280.734        58.89
 293.481  137.377  162.627        58.89
 212.429   38.915  154.931        58.89
  62.452   30.785  328.697        58.89
  81.917   14.905  352.854        58.89
 242.934  164.970   15.824        58.89
 327.036   17.824   37.585        58.89
 359.775  139.951  235.229        58.89
 301.704  134.511  179.334        58.89
 144.584  159.262  289.993        58.89
  19.156  158.976  214.435        58.89
 137.344   87.719  143.176        58.02
 113.844  129.202  107.933        58.02
 160.010  118.374   78.282        58.02
  94.464   33.557  287.426        58.02
 288.360   30.550   70.058        58.02
  25.657  147.911  241.177        58.02
  15.634   55.872   38.350        58.02
 105.802  156.446  293.958        58.02
   7.260   43.987  357.794        58.02
 286.598  150.359  124.115        58.02
 357.178   32.794   11.386        58.02
  77.917  142.597  275.454        57.16
 254.506  150.080    3.199        57.16
 265.308  149.620   44.538        57.16
   2.549  131.308  221.272        57.16
  51.564   19.732   12.184        57.16
 337.714   35.231  106.394        57.16
  57.002   35.909   31.494        57.16
 137.431  167.824  259.842        57.16
 130.769   36.160  235.407        57.16
 359.957   28.452   34.175        56.29
  47.363  141.500  263.906        56.29
 263.735   52.672  282.173        56.29
  66.748   27.013  325.049        55.43
  89.645   19.862  296.310        55.43
 216.269  144.006  356.191        55.43
 187.334   44.236  154.883        55.43
 179.398  122.875  167.942        55.43
 100.992  138.122  264.583        55.43
  31.485  133.064  242.351        55.43
  96.281   65.023  283.540        54.56
  51.627   30.857  347.858        54.56
  65.849  143.820  270.062        54.56
  90.302   29.241  289.062        54.56
 101.746  159.654   30.810        54.56
 324.310   49.165   67.057        54.56
 326.160   30.433   26.783        54.56
 111.861   40.138  329.090        54.56
 295.383   20.100  107.580        54.56
 338.960  143.440  197.481        53.84
  71.032  105.096   31.255        53.69
 166.082    7.942  248.217        53.69
 332.338   30.618   28.810        53.69
 306.810   61.993   90.250        53.69
  10.079   40.816   45.623        53.69
  39.813   40.545   51.971        52.90
 355.626   35.981   46.717        52.83
 278.843   94.913  281.188        52.83
 348.453   30.790   26.598        52.83
  84.792   28.515  314.156        52.83
   3.470   32.487   55.194        52.83
 269.064  149.043  162.313        52.83
 350.831  131.953  232.191        52.83
 206.132   44.584  290.100        52.83
  15.485   35.566   37.620        52.83
  28.344   49.060   37.869        52.83
  23.377  138.713  232.004        52.83
  10.034   41.393   34.309        52.68
 241.656  151.176  161.130        52.25
 252.546   20.246  269.251        51.96
 205.631  145.311  218.964        51.96
 117.768   37.689  271.210        51.96
 245.954   14.390  125.829        51.96
  33.426   27.751   23.501        51.96
 356.494   18.105   57.877        51.96
  81.839  133.851   56.280        51.96
  85.963  137.340   92.694        51.53
 174.470   30.342  247.698        51.10
 309.676  149.942  139.361        51.10
 117.151   35.337  236.598        51.10
 352.310  158.520  207.257        51.10
 270.243  138.798  150.873        51.10
 180.167  149.319  294.366        50.23
   5.526   30.843   62.025        50.23
 217.599   36.297  164.873        50.23
 347.133  150.175  223.662        50.23
 281.043  171.938   95.587        50.23
 138.765  169.654  132.322        50.23
 158.648   10.757  258.200        50.23
  54.730   33.641    4.214        50.23
 215.960  146.565  340.152        50.23
 303.427   27.137  111.408        50.23
  58.933   46.780    3.561        49.94
 200.658   33.098  189.006        49.36
  41.921  146.761  214.552        49.36
 177.167   60.171  167.296        49.36
 272.389   43.142  122.858        49.36
  45.901  149.636  241.610        49.22
  71.225  129.490   90.293        48.50
 148.543   74.056  160.767        47.63
 216.958   22.056  164.282        47.63
 340.396   63.107  235.439        47.63
 163.286  135.955  119.092        47.63
  32.615   27.637   47.335        47.63
  71.563  141.708   22.150        47.63
 130.788   32.383  176.723        47.63
 321.117   26.635   62.177        47.63
 198.727   33.045  163.053        47.63
 122.619  137.477  119.708        47.63
  64.627  146.112  112.711        47.63
 188.416  129.479  163.014        47.63
  74.003  139.085   68.879        47.63
 265.627   30.884  151.131        47.63
 177.460   32.862  272.643        47.63
 250.910  128.243  170.147        47.49
   0.029   57.610   28.480        46.91
 146.298  149.553  154.479        46.77
 338.396  152.254  227.840        46.77
 213.586  154.159  348.613        46.77
 186.119   28.250  159.203        46.77
 161.832  140.019  151.682        46.77
  84.231  149.334   79.025        46.77
  64.195  140.295  263.983        46.76
  91.200  125.845   75.082        45.90
  43.008  139.671   62.084        45.90
 196.010   38.282  174.463        45.90
 301.214   42.386   94.097        45.90
 215.333   45.422  126.206        45.90
  76.804   37.926  325.154        45.90
 222.997  136.387    0.830        45.90
 166.582   31.781  158.961        45.90
 284.406  128.848   63.972        45.90
 152.300   25.896  184.712        45.90
 284.261  157.588  114.344        45.18
  98.445  147.993  108.031        45.03
 263.553   36.925  308.211        45.03
 104.301   26.974  285.168        45.03
  56.293  139.136   80.076        45.03
 143.796   35.013  160.451        45.03
  84.703   70.023  107.712        45.03
 155.422   17.871  194.435        45.03
 302.710   42.916   84.187        45.03
 253.577   57.721  294.894        45.03
 197.804  147.252  350.047        44.17
 122.709   32.978  262.613        44.17
  35.455  142.699  214.867        44.17
 203.326  146.723  206.384        44.17
 328.204   35.118   79.667        44.17
 305.113   13.855  120.767        44.17
  97.227   32.059  291.694        44.17
 306.818   12.278  123.185        44.17
 119.581  143.463  123.322        44.17
  55.697   40.627  356.311        44.17
 183.684  148.248  176.316        44.17
 291.244  143.963   62.290        44.17
 337.243  106.528   35.275        44.17
  51.813  173.724  257.505        44.17
 283.148   45.083  123.543        44.17
  15.816   34.830   42.273        44.12
  96.388  144.709  276.163        43.30
  12.568   53.452   66.319        43.30
 119.829  148.914  139.202        43.30
 146.253   15.981  227.840        43.30
 132.960   29.235  255.445        43.30
 182.777   94.201    8.223        43.30
 103.574   36.066  267.245        43.30
  75.767   22.125   23.103        43.30
  17.926  135.511  262.236        43.30
 222.175    8.991  216.730        43.30
  84.176   36.328  208.931        43.16
 187.092   43.951  172.968        42.44
 315.683  151.911  148.428        42.44
 293.487   28.275  106.130        42.44
 318.155   51.439  102.245        42.44
  64.111  149.449  276.630        42.44
   9.146   35.233   51.148        42.44
 116.304   53.447  186.136        42.44
 173.118   19.773  201.070        42.44
 336.076   15.380   69.041        42.44
 126.385   28.589  214.772        42.44
 198.415   33.608  173.953        41.57
 111.690  148.375  306.686        41.57
  19.839   37.769   49.308        41.57
 335.642   30.787   75.077        41.57
  14.261   46.937   56.289        41.57
 130.099  115.390  143.214        41.57
 226.989  136.543  138.153        41.57
 203.526   52.589  181.909        41.57
  66.308  153.279   87.316        41.57
 258.825   35.144  303.779        41.57
 260.720   49.613  343.522        41.57
   4.398   43.744   36.204        41.57
 135.494  148.444  134.881        41.57
   6.271   37.640   17.092        41.57
 170.318   29.761  175.442        41.57
 341.687   71.205   32.445        41.57
   5.730   37.005   65.863        41.57
  57.631  149.038   99.752        40.70
 134.567   32.472  253.482        40.70
 356.446   32.549   52.896        40.70
 159.725   33.304  205.041        40.70
 347.356  146.282  223.748        40.70
 323.782   14.298   62.588        40.70
 278.475  142.758  174.251        40.70
  48.470   32.920  320.951        39.84
 348.987   33.433   17.301        39.84
 288.612  141.534  182.001        39.84
  99.585   26.929  352.244        39.84
 259.646   33.824  127.522        39.84
 341.642   34.856   24.450        39.84
 271.123  169.986   59.507        39.84
 321.187   43.146  238.281        38.97
  23.533   31.745   31.180        38.97
 344.359   44.204   53.744        38.97
 227.144  157.635  104.381        38.97
 325.323  165.368  199.657        38.68
 197.577   40.237  142.260        38.11
 142.585  149.107  118.057        38.11
 129.893  128.290   99.974        38.11
 275.364   43.877   97.396        38.11
  32.737   35.992  317.245        38.11
   3.092   39.687   39.418        38.11
  26.783   27.277   25.211        38.11
  43.916   16.344   28.264        38.11
 167.631   32.833  113.693        38.11
 272.343    9.857  106.315        38.11
 266.420   31.184  115.717        38.11
 303.072  129.020  206.950        38.11
 113.354   30.638  273.219        38.10
 110.485  153.738  154.267        37.24
 337.597  141.563  200.256        37.24
  80.434  138.976  261.556        37.24
 187.853  142.798  186.199        37.24
 340.554  158.624  238.716        37.24
 189.658  138.159  206.556        37.24
  31.753   30.378   20.096        37.24
 276.194   24.565  113.821        37.24
 347.948  117.691  228.146        36.52
  20.161   38.741   26.053        36.37
 176.572   32.278  182.938        36.37
 263.225   37.026  308.521        36.37
 341.396   34.494   20.161        36.37
 348.000   10.873   24.003        36.37
 206.243   35.977  161.394        36.37
  35.990   65.755   75.738        36.37
 313.778   29.184  102.738        36.37
 231.565  145.092  213.598        36.37
 218.556  149.553  340.212        35.51
 327.468  138.910  165.163        35.51
  96.680  130.954  120.714        35.51
 187.538  130.065  331.513        35.51
 346.020   36.639   83.209        35.51
 302.621   40.875   94.203        35.51
 338.865  129.297  199.620        35.51
 117.832  155.469   92.037        35.51
 225.054   27.241  166.524        35.51
  93.414   32.298  283.971        35.51
 206.359   37.693  165.871        35.51
  66.864  152.540  246.665        35.51
 270.489   30.810  113.496        35.51
  50.736  142.569   84.243        35.51
 221.488   42.695  308.061        35.51
 153.373   16.407  255.310        35.51
  60.785  106.917  210.445        35.51
  31.714  150.470  196.760        34.64
 284.942   28.758  101.983        34.64
  18.814   35.879    0.796        34.64
 105.445   24.565  312.857        34.64
   8.571  150.893  227.020        33.78
  66.222   32.145  343.449        33.78
 313.682   26.956   81.091        33.78
  96.157   21.385  332.670        33.77
 342.339   46.030   63.325        33.77
 310.689   76.183  306.852        33.77
 357.359  159.216  188.832        33.77
  75.276   37.607  356.902        32.98
 347.571  152.133  209.554        32.91
 115.709   28.314  334.469        32.91
 270.189   21.593  173.401        32.91
  25.382   13.490  353.833        32.91
 320.921  135.623  184.964        32.91
 359.230  155.902  251.986        32.91
 237.152  152.000  240.752        32.91
   7.289    5.806   15.299        32.91
 167.720   35.423  321.851        32.91
 184.724   59.282  182.948        32.91
 247.842   61.020  342.376        32.84
 290.603   28.602  145.492        32.04
 194.309  148.493  202.634        32.04
 259.406   86.368  265.017        32.04
  13.059   41.268   41.013        32.04
  12.414   26.842   55.236        32.04
 265.757   26.786  140.731        32.04
 315.426   54.304   70.056        32.04
 325.966  137.818  194.418        32.04
 246.150   43.634  295.915        31.18
 120.039   56.884  140.412        31.18
  51.534  136.123   69.508        31.18
 132.126  143.828  152.297        31.18
 103.288  130.436  115.779        31.18
  80.425   34.859  217.275        31.18
  41.936   42.881   26.279        31.18
  11.519  149.651  208.376        30.31
 268.027   35.395  109.653        30.31
 196.422   49.638  299.194        30.31
 141.402   51.306   12.129        30.31
  23.517  146.068  214.434        30.31
 299.351  160.954  152.965        30.31
 151.932   42.682  218.658        30.31
 240.514   50.055  291.363        30.31
 283.438  145.716  111.598        30.31
 213.722   32.139  113.416        29.44
 172.421   32.358  169.193        29.44
 236.341  147.782  241.067        29.44
 342.853  155.003  210.536        29.44
 262.880   24.348  156.914        29.44
 253.886   41.664  278.302        29.44
 207.736  146.498  355.304        29.44
  98.238  134.737  174.342        29.44
 106.489  146.173  103.809        29.44
  46.150   17.294  336.226        29.44
 134.867   28.664  177.562        29.44
 198.823   36.260  156.896        29.44
  34.991   38.709   14.417        28.58
  62.780   36.862   29.416        28.58
 287.344   32.548   93.290        28.58
 123.604  106.236  145.867        28.58
 122.941   55.720  175.096        28.58
  62.640   59.927  141.242        28.58
 336.598   30.158    6.961        28.58
  59.840   42.255   23.153        28.58
  30.705   55.655   50.202        28.58
 183.264   30.331  172.586        27.71
 319.221   29.900  101.210        27.71
 180.291  139.597  169.259        27.71
 329.149   17.360   90.830        27.71
  98.840   24.697  327.485        27.71
  27.273  148.819  256.608        27.71
  98.410  134.954  114.633        27.71
 246.347   30.975  122.497        27.71
  90.574   42.300    1.235        27.71
 318.845   27.915   95.848        27.71
  45.916   41.438  335.768        27.71
  17.643  156.869  201.569        27.14
  62.810   60.060   24.272        27.14
  90.044  128.755  267.643        26.85
  12.623   29.642  351.493        26.85
 282.322   31.474  120.512        26.85
  27.750  121.300   57.656        26.85
 351.075  123.792  163.232        26.85
 351.747   24.120   32.401        26.85
 197.936  154.096  191.730        26.85
  47.973   27.974   24.524        26.85
  52.151   26.289   39.422        26.85
  43.530  140.711  204.741        26.70
 118.764   54.443  219.559        26.13
 115.570   54.208  141.991        25.98
 100.905   62.338  332.954        25.98
  68.894  144.244   71.823        25.98
 161.195   34.422  247.155        25.98
 100.877  128.692  157.810        25.98
  23.695   31.241   30.693        25.98
  65.596    9.294  280.402        25.98
 120.410   41.869  337.766        25.98
 113.743   28.635  283.825        25.98
 254.724   48.477  315.020        25.98
 283.664   30.759  124.095        25.98
 288.474  160.312  121.506        25.98
 320.029   41.501   25.607        25.98
 189.733   53.757  170.773        25.11
 227.573   36.476  149.443        25.11
 229.217  157.224  311.888        25.11
 345.073   86.784  246.090        25.11
  38.362  144.529   67.445        25.11
 149.871  134.775  153.434        25.11
 269.175   55.782  332.767        25.11
 354.037   30.566   24.222        25.11
 163.347  136.444  145.688        25.11
 322.759  132.558  184.022        25.11
 347.048  143.933  178.078        25.11
  10.275  142.274  248.982        25.11
 302.328   20.147  172.954        25.11
 206.897   20.890  228.417        24.25
   0.404   22.826   26.245        24.25
 202.490  142.027  179.963        24.25
 315.760   33.005   69.566        24.25
 325.309   47.744   63.483        24.25
 215.034   44.145  173.517        24.25
 187.347   61.178  298.556        24.25
 272.784   11.448  151.999        24.25
 214.019   19.720  118.728        24.25
  67.992   27.964  294.792        24.25
 257.335  146.114   94.181        24.25
 268.295   97.236  327.941        23.38
   0.371   22.717   32.457        23.38
  83.892   40.320  348.085        23.38
 108.254   21.896  336.361        23.38
   1.517   23.748   26.336        23.38
 305.591  137.871  175.331        23.38
 230.160   32.097  124.240        23.38
 343.443   24.305   37.373        22.81
 194.007  129.447  174.723        22.52
  30.056   30.411   59.029        22.52
 260.038   41.055  303.818        22.52
 331.441   36.957   86.004        22.52
  64.928  152.335  262.218        22.52
 301.555  149.482  119.565        22.52
 166.114  132.543  144.857        22.52
  36.215  157.609  246.133        22.52
  60.450   46.725    7.836        22.52
 240.789  149.186  358.750        21.65
 154.034   71.907  153.556        21.65
 249.569   72.914  313.966        21.65
   6.007  148.673  222.591        21.65
   4.389  144.791  224.333        21.65
  37.205   77.774   42.584        21.65
 196.310   37.166  152.533        21.65
 182.644   26.992  246.454        21.65
 193.180   29.387  183.981        21.65
 251.024  137.840   80.436        21.65
  99.222  143.871  131.340        21.65
  82.786   33.579   13.305        21.65
  87.675   33.131  314.308        21.65
  38.819   30.533   19.497        21.65
 268.957  135.549  179.514        20.78
 295.798  141.982  139.996        20.78
 278.466  160.918  148.065        20.78
 160.780  124.649  168.364        20.78
   9.020   28.856    1.739        20.78
 274.040  150.842  106.043        20.78
  60.757  156.873  292.761        20.78
 298.818  156.405  137.538        20.78
  80.458  150.552   71.299        20.78
  95.842  161.558  283.738        20.78
 203.956  156.887   91.840        20.78
  32.575  139.493  234.073        20.78
 164.653   34.085  336.184        20.78
 106.007   16.994  304.487        20.35
 289.383   31.706  112.586        19.92
   4.790   56.503   48.480        19.92
 205.021  154.774  286.699        19.92
  38.507   38.377   36.772        19.92
 342.263   40.238   30.236        19.92
 192.884   39.509  196.361        19.92
 337.816  142.376  178.383        19.92
  17.101  125.889  230.689        19.92
  32.587   23.244  357.487        19.92
  94.123   93.251  285.047        19.05
 336.656  141.134  210.260        19.05
  17.022  140.860  247.273        19.05
 161.374  152.393   18.300        19.05
 304.699  137.154  195.282        19.05
  58.682  145.769  273.636        19.05
  31.540   33.280   42.800        19.05
 344.409   31.215   62.779        19.05
  81.636   43.063    7.139        19.05
 342.688  146.109  194.546        19.05
 127.906   46.834  225.590        19.05
  72.113  164.555  296.192        19.05
 296.191   42.121   61.585        19.05
 340.020   21.173    0.584        19.05
 133.234  145.931  128.679        19.05
  67.046   43.417   42.320        19.05
   8.639   33.466   38.537        19.05
 195.492   25.463  177.878        18.19
  76.973  108.095   64.534        18.19
 211.655   31.455  179.745        18.19
 278.042   44.953    4.856        18.19
 236.647   14.659  173.807        18.19
 107.633   40.189  329.407        18.19
 111.292  135.880  132.663        18.19
  36.367  159.673  202.032        17.32
 347.483   27.499   37.060        17.32
  47.607   33.321  358.737        17.32
 351.607  138.019  212.453        17.32
 261.921  150.710  183.230        17.32
 307.002   29.182  219.255        17.32
 349.012   33.946  346.418        17.32
   9.502  139.423  244.825        17.32
 317.547   23.134   73.780        17.32
  41.120   20.663  262.348        17.32
 192.110  146.713  311.279        17.32
 201.132   29.422  170.312        17.32
  76.397  165.873  265.864        17.32
 307.657   32.998   64.425        16.45
 240.762   35.613  221.903        16.45
  98.388  158.687  287.783        16.45
 297.717  145.194  128.908        16.45
 200.611   57.156  180.406        16.45
 106.636  149.689  103.938        16.45
  43.831  145.267  267.200        16.45
  82.237  134.207  277.302        16.45
 176.571  151.221  138.332        16.45
  11.985   26.583   37.768        16.45
 312.967  138.961  179.738        16.45
  92.973  106.426   47.932        16.45
 334.487   28.990   84.043        16.45
 331.894  141.529  159.570        16.45
  20.682  152.321  226.261        15.59
 349.059  145.944  185.572        15.59
 233.008   29.597   51.404        15.59
 277.895  134.242   55.373        15.59
  51.003   30.362    9.357        15.59
 305.083  126.100   34.552        15.59
 345.615  129.766  203.124        15.59
  42.174   29.625  359.638        15.59
  12.608   33.274   33.841        14.72
 324.384  150.201  215.738        14.72
 230.284  129.211  199.087        14.72
 354.409  140.897  219.370        14.72
 115.708  137.471  124.186        14.72
 344.923   71.408   35.812        14.72
 119.008  145.863  137.557        14.72
 242.522   49.824  280.030        13.86
 184.486  159.651  167.796        13.86
 225.675   35.611  272.417        13.86
  17.034  143.834  219.335        13.86
  39.874  153.558  251.224        13.86
 117.119  102.218  161.473        13.86
 303.443   18.687   67.600        13.86
 202.448   44.986  327.817        13.86
 112.285   23.002  282.874        13.86
 163.298  128.450  314.490        12.99
 196.386  136.283  181.859        12.99
 216.120   36.224  164.242        12.99
  87.778  147.212  262.290        12.99
 278.805  149.335  102.420        12.99
  37.293   28.711   30.349        12.99
 117.939   14.222  227.009        12.99
 357.430   28.885   38.959        12.99
  13.825  137.584  246.456        12.99
 226.809   27.065  286.847        12.99
  22.724   56.874   52.532        12.99
