TEXTURE AT STRAIN = 0
1.0   1.0   1.0
DISCRETE TEXTURE FROM ODF FILE ND_625C_20
B 3377
 164.649   41.370  312.604      2592.12
 359.143   65.017  299.253      2053.34
 172.495   69.150   87.451      1969.71
 285.488   15.719   89.738      1894.80
 170.294  123.028  298.011      1806.09
 309.753   12.343  158.225      1791.07
 172.258   91.804  325.155      1743.02
 173.218   59.066  273.579      1729.08
 195.301  118.821  321.268      1537.12
 345.511   23.859  250.433      1415.82
 171.922   47.431  318.901      1409.71
 352.057   45.160  346.929      1315.73
   8.585   74.311  321.890      1308.27
   4.935  135.474   37.636      1258.01
 246.472   23.591  342.762      1255.84
 167.441   89.650   77.650      1252.70
 160.515   27.927  275.203      1214.16
 172.288  141.312  327.549      1209.69
 184.459  140.751  322.183      1193.16
 277.891  156.508  354.949      1191.84
 184.629   49.078  316.103      1162.32
 164.953   64.056   78.321      1156.68
 197.260   99.198   22.421      1105.12
 347.241   70.892  227.991      1070.83
 349.275   78.207  274.865      1058.89
  16.896   45.966  310.784      1011.23
 186.407   71.131   19.973      1006.69
 197.321  143.290  224.794       998.10
 184.997   29.803  155.317       990.70
 197.469   95.023  336.095       984.34
 217.194    9.094  274.300       975.00
 178.622   49.508  282.194       971.46
 171.504   92.381   24.953       969.63
  93.415  162.397  210.930       951.50
   3.728   70.571  162.285       934.33
 231.358   24.525  236.354       933.08
 110.557   17.300  183.488       913.56
 121.200   36.804   44.210       857.09
 192.852   86.971  329.872       823.01
 352.406   96.825  266.382       820.50
  82.139   22.980   60.919       810.03
 358.523   43.615  121.925       804.74
 190.048   38.769   78.024       801.40
  10.994  140.904  138.222       799.38
 359.176   82.288   32.844       799.16
 168.888  101.169  263.415       782.89
 206.579  133.168  321.141       780.53
 357.421  100.888  321.574       742.31
 169.191  140.124  305.462       737.54
 354.662   51.293  321.076       737.48
 176.611   92.845   86.425       726.57
 190.748   34.324  355.692       718.13
 185.426   92.456  320.398       704.01
 356.225  145.564   86.282       698.97
 191.089   98.712   98.199       688.82
 191.593  132.017    4.784       677.72
   5.757  151.607  206.318       661.78
 187.572   41.847  343.773       661.69
 116.573  154.947  227.031       655.56
 161.187   33.999  275.201       649.37
 357.587   57.750  174.748       648.50
  15.594  154.116  115.807       647.50
 179.252  111.194  318.646       643.25
 177.126  151.968  317.820       639.69
  14.426   41.186  115.255       630.70
 149.564  149.975  325.698       626.43
 335.382  138.896   30.177       622.19
 199.373  157.612  318.630       613.75
 190.289  105.968  319.985       612.19
   0.793  102.117  264.780       605.70
 265.837   17.939  342.836       600.91
 180.152   89.283  274.235       588.65
 329.556   11.850  157.696       582.40
 171.099  112.619   62.448       576.70
   0.994  142.657   88.486       573.02
  10.252  154.529   95.829       568.74
 331.189   14.892  146.563       566.17
 188.002  116.672  358.328       560.53
 317.943  159.219  260.144       559.76
 160.897  143.789  336.535       552.42
 178.537  149.425  343.555       552.12
 262.001  165.294   32.382       549.50
 316.356  163.671  332.386       546.39
 353.271   45.094  294.179       541.41
 356.884  146.181   74.585       540.46
 188.009  122.526  337.869       536.04
 334.286  142.997   20.947       529.30
 174.726   95.537   29.973       528.36
   3.135   53.454  329.503       525.91
 138.018   31.548  335.404       523.74
 190.032  141.984  309.312       522.19
 192.774  122.375  333.030       515.68
 351.153  102.133  247.813       513.98
 348.584   81.871  209.727       512.37
 189.299   99.308   34.619       506.50
 359.097   66.624  315.220       506.40
 186.083   40.211  102.886       506.16
 208.126  155.630  338.743       504.50
 200.851   94.545  316.720       504.30
 179.010   88.924   39.912       501.25
 169.767   78.383   88.781       499.65
   1.970  104.290  280.939       496.75
 203.970  142.363  302.660       480.58
   6.110   34.758  278.915       477.70
  71.211   20.572  355.777       477.60
 104.389   20.103   70.959       477.38
 190.915   97.009  295.089       473.38
 158.643   39.963  333.613       471.89
  10.157   83.099  273.725       469.40
 188.295   81.994   57.172       465.50
 189.899   77.122  332.650       465.44
 182.290   73.529   90.769       463.32
 180.094  136.069  285.559       457.24
  87.762   32.544   78.340       455.75
 251.683   73.224  353.532       455.38
 286.479   23.652    9.688       452.25
 277.609   29.336  323.944       450.02
 174.314  114.054  268.383       440.60
 182.563   21.479  164.285       440.00
 187.773  119.679  318.133       439.25
   6.181   42.847  314.840       438.44
 179.936   81.876   89.542       435.54
 359.280   40.494  332.209       433.48
 352.440   58.933  168.129       432.53
 283.876  160.669   26.257       430.75
 259.965  157.980   30.544       429.56
  34.461  156.995  183.930       428.69
 188.170   84.852   98.102       424.91
 349.690  139.617   60.625       424.05
  27.520   35.252   87.509       423.69
 183.463   37.017  198.362       423.13
 194.471   91.690  282.023       422.81
 352.407   74.860  211.189       421.66
 180.429  106.483   29.083       421.44
 187.074   86.277  105.294       420.31
 350.979   47.564   79.414       419.76
 325.210   96.209  325.454       418.94
   1.136  143.433  340.214       415.22
 188.115  141.037  347.139       412.39
 119.592  172.505  249.415       411.37
  86.663  156.511  193.915       411.22
 168.257   83.819   55.666       408.75
 167.900   78.052   72.168       408.37
 355.155  151.533  346.091       403.42
   3.055  140.511   21.120       402.42
 168.145   96.653  334.877       400.62
 189.839  146.640  282.962       397.75
   6.668  152.612   87.808       395.59
 358.215   77.271  216.102       394.75
 158.440  122.771  306.325       393.52
 118.023   11.503    0.173       393.49
 187.313   90.870  323.142       393.40
 188.086  137.007  315.565       393.03
 345.095  164.295  321.785       392.97
 170.764   41.344  249.142       389.54
 197.253  139.113  347.120       388.89
   5.418  175.571  109.489       388.03
 181.197   86.645   89.498       385.02
 183.505   94.055  322.029       383.20
 287.516   25.120  185.773       382.44
 350.379  109.623  271.213       382.13
   3.582   40.291  110.779       379.16
 167.515  101.039  206.470       378.23
  65.567  156.804  249.863       371.54
 349.895  103.277  140.407       369.25
 151.872  156.051  259.380       367.96
 201.749  132.976  330.592       364.83
  91.778   26.536  273.569       361.53
 246.459   24.070    7.526       361.50
 185.060   54.216   76.109       359.72
   9.216  104.025  103.088       359.65
   8.269  102.830  231.275       356.13
  12.872  143.856  143.916       355.89
 119.904   13.590  357.825       354.29
   0.123  137.580  312.602       353.22
   8.703   40.225  288.345       352.00
   4.482  124.515   54.705       351.30
 194.145   28.674  242.997       349.09
 183.399   63.563  291.544       339.06
  10.711   42.978  338.161       338.76
 298.968   22.055   50.009       337.41
 186.232  131.487  327.024       336.26
 168.577  150.386  321.892       332.50
   6.011   43.783  136.972       331.52
 275.243   69.791    4.634       330.34
 350.132   90.728  280.065       325.81
 241.668   79.290  357.098       325.41
  40.162   37.651    2.711       325.17
 179.123   73.250   66.878       319.35
  65.668  158.333   52.985       318.25
 189.078  135.175  312.270       317.85
  23.088   48.836  289.939       315.81
 183.999   85.638  330.168       314.75
 105.509  155.018   86.099       313.75
  25.535   25.847  292.842       313.52
 358.293   38.197  267.730       312.77
 357.395   83.188  317.878       312.75
 172.560  146.772  288.591       310.36
  63.749   31.616  300.660       310.24
  30.673   31.534   84.208       308.31
 221.110   30.790  124.369       307.87
 171.297   86.360   95.908       306.87
 322.842  147.194   31.069       303.26
   7.004   45.103   44.651       302.95
 203.990  135.541  348.022       302.61
  15.084   37.784  134.972       301.87
 129.448  164.224  190.566       301.81
  32.069   66.063   95.924       301.50
 125.296   24.308  195.806       301.50
 270.788   18.009  336.950       299.63
 358.102   59.865  151.672       298.51
 187.738  136.426  336.002       297.37
 168.115   36.899  271.916       295.94
 179.295   96.443  312.523       293.55
  12.108   24.750  146.403       292.75
 189.788   30.906  240.509       292.73
 188.210   29.817   87.694       292.22
  92.943   26.277  333.924       291.81
 259.309  158.361   29.359       290.75
 143.546  163.025  264.355       290.25
   1.101   46.502  295.368       290.03
 189.920  141.241  324.798       289.62
  28.603   38.058   84.561       284.96
 221.880   12.013  261.832       283.44
 316.441   98.073  353.399       283.15
 358.960  103.204  251.586       281.91
 189.767   25.387  201.620       281.71
 315.613   13.570  174.327       281.00
   6.089  108.566  279.691       280.53
 232.704  160.908  338.801       279.00
 201.427   22.673  266.428       276.10
 350.064  126.895  326.808       275.50
 191.191   82.209  186.719       274.94
 189.173   71.332  297.319       274.84
   0.158   32.510  341.776       274.12
 179.873  130.832  343.696       274.11
 358.411  106.252  318.374       273.17
 341.140   24.684  162.429       270.67
 164.542  143.505  303.329       270.31
 358.247   83.026  219.617       269.31
 351.888   83.833  209.282       269.25
 171.285   96.453   83.814       267.69
 123.663   13.818  344.518       266.75
  12.080   87.557  258.783       264.03
 347.583   81.897  267.114       260.99
 322.824   33.029  306.600       260.95
 192.184   24.046  310.935       260.05
 348.911  134.811  215.912       258.89
 357.521   56.186   12.585       258.16
  97.615   25.180   57.272       257.32
  93.996  106.602   72.410       256.41
 175.235  105.683  316.881       256.31
 349.977  159.927  279.255       256.09
 325.220   13.009  152.592       255.85
 258.412  160.111  355.303       254.37
 300.628    8.781   18.514       251.41
 339.063   42.712  334.534       249.50
 192.896   65.031  312.974       249.41
   9.080   84.481  267.586       249.16
 195.348  151.898  326.025       248.24
 183.540   84.699   88.731       247.00
  63.222  156.054  274.919       246.52
 181.953   89.802  278.886       245.79
 351.796  111.042  216.006       245.30
 162.567   39.634   20.687       243.35
 155.006   39.955  352.921       243.25
 181.456   85.262  326.676       242.34
 190.073   96.354  333.398       239.94
 195.328   98.203  296.067       239.84
   3.661  102.423  277.258       239.50
 172.644  137.033  290.602       238.76
  42.692    7.248  100.849       237.93
   5.575  158.871  144.894       237.91
  14.400  172.199  119.074       236.81
 211.742  146.270  337.338       236.73
  80.364   11.105  334.232       236.25
 171.880   55.402  306.930       235.25
 136.102   83.615   67.062       234.29
 202.885  136.815  353.922       233.31
 178.760   50.725  204.150       230.81
 158.240   23.592  170.666       229.66
 356.038   93.599  290.385       228.83
 178.486   72.504  292.395       227.25
 161.375  153.803  297.698       227.11
 170.810   94.523   86.469       226.28
 235.658   18.206  324.513       226.24
 347.902   82.254   23.203       222.69
 282.052   20.978  183.692       221.96
  12.411   93.817  265.783       221.45
  23.505   36.318  305.085       220.78
 344.283  155.438  325.677       220.72
  92.908   28.500  314.313       220.65
 204.455   75.258  317.341       219.19
 334.275   72.272  326.086       217.09
 356.150   84.874  279.511       217.06
  83.232   84.041   83.712       217.06
 179.897   26.678  282.648       215.97
 171.602   58.177    6.320       214.62
  91.471   29.347  280.419       214.50
 340.596   83.828  222.772       214.44
 186.687  106.249  304.915       214.27
 348.312  125.368  313.304       213.66
  12.146   97.610  255.921       212.69
  62.704    9.342   20.272       211.98
 353.727   90.736  223.725       211.00
 344.713   23.901  323.378       209.85
 174.713   91.011   83.545       209.01
  85.163   24.813  340.199       208.26
   2.281  152.385   27.766       207.19
 264.843  141.191  331.049       206.30
  11.299  110.626  286.138       206.17
 222.649   70.508  335.032       204.25
 219.526  159.914  290.916       204.00
 355.428  110.610  268.350       203.33
   3.319   90.611  291.343       202.56
 263.500   41.185  206.495       202.50
 177.693   26.897  280.130       202.23
  10.538   90.503  260.197       201.25
 192.983  145.142  306.785       200.48
 349.725  145.761  267.568       199.86
 136.171  149.636  284.348       199.35
 345.911  141.685    9.032       199.31
   9.638   87.752  261.200       199.25
 352.962  101.691  269.072       199.20
 253.680   26.971  320.502       198.06
 163.886  146.410  319.945       194.55
   5.031  125.941  234.340       194.30
 324.067  127.306  265.706       193.81
 183.540   87.022  207.638       193.45
  13.234   35.261  116.655       193.29
  77.924   23.263   92.233       192.81
 196.999  101.861  333.067       192.07
 243.287   21.095  222.096       191.81
 347.316   78.346  328.965       191.63
 251.860   32.914  219.301       191.50
 271.143   23.138  340.124       190.76
 199.735  133.908  340.625       190.22
 353.185   28.482  345.028       189.25
 267.545  160.483  216.120       189.09
 349.266   38.559  147.136       188.94
 198.099  161.658  316.789       188.60
 349.229  112.527  333.649       188.50
 353.967  126.931  168.253       188.47
 351.226  102.864  320.536       188.37
 175.535   88.637   85.241       188.25
  81.229  147.019   76.242       188.25
 280.881  159.566   49.336       187.69
 168.632   93.136   88.120       187.50
 359.376   99.755  263.840       187.14
 184.449  102.345   74.248       186.31
 170.629  148.069  309.098       186.16
   1.454  146.689  221.567       185.82
 181.373   53.613  262.513       185.25
   0.651  127.065  157.251       184.02
 187.392   31.798  269.030       183.88
 358.787   79.570  252.324       183.09
  16.455  178.636  163.815       182.64
 354.897  132.376  212.495       182.19
 224.957   16.008  233.904       181.55
 354.166   92.418  224.135       181.41
 170.310   39.051  339.022       180.99
  95.754   23.727  259.247       180.50
 346.504   83.430  327.527       180.05
   2.832   90.819  200.598       179.66
 100.620   34.738   79.655       179.63
 197.688  126.260   60.603       179.25
 127.225   27.797  293.996       179.00
 343.883  102.028  282.096       178.35
 345.584   83.947  156.865       178.25
 179.476   36.548   22.729       177.58
 344.253  134.534   10.954       177.45
 189.824   57.678  340.827       176.44
 187.094   43.476   76.479       176.06
 172.804   60.957   80.904       175.83
 357.574   31.750  342.998       175.75
  33.604   20.331   60.196       175.54
  63.276   28.708   38.448       175.31
 207.206   73.582  331.587       174.85
 359.637  105.444  243.470       174.37
 357.475   80.750  213.457       174.06
 322.498  100.053  287.700       173.67
 343.819   25.636  299.478       173.63
  79.860   33.180   75.277       173.57
   7.230  105.335  262.940       172.62
 239.964   21.906  226.701       172.38
 265.370  149.615   42.203       171.25
 169.808  157.967  218.509       171.25
 337.962   35.679  295.500       171.19
  60.850    8.524   21.010       169.28
  13.597  110.897  270.499       169.03
 180.959   98.660  319.015       168.93
 263.371  155.767  125.907       168.75
  17.946  154.943  140.440       168.55
  73.907  147.844  257.449       167.98
 350.591   91.736  199.061       167.95
 132.495  157.827  250.001       166.82
  47.126   13.346    3.086       166.25
 187.633  107.614  334.369       165.75
 174.788   60.990   57.575       164.19
  18.256   35.428   75.896       164.00
 327.866  176.227  104.507       162.87
   9.566  170.008  174.722       162.83
   9.396   32.687  135.274       161.87
 128.083   26.729  300.827       160.92
   4.615  149.816  121.746       160.84
 116.814  153.265   98.538       159.50
 176.674   69.709   89.010       159.25
 170.243   77.420   41.050       158.77
 357.452   98.934  279.063       158.71
 197.340  142.335  358.162       158.50
   0.803   76.947  336.770       157.31
   6.428  152.383   95.319       156.66
 340.383  110.681  292.042       156.50
 188.798   87.554   61.114       156.07
 280.312   16.959  350.826       155.92
   3.216  108.560  234.075       155.75
   8.777   96.131  275.734       155.25
 144.154   95.157  298.605       154.60
 180.223   99.212   15.723       154.14
 359.351   98.100  257.349       153.54
 179.410   88.261  329.922       153.32
 182.797   99.234  205.351       153.31
 191.319   67.049   82.857       152.11
 356.611  104.522  145.040       152.00
 339.769  138.361  357.710       151.94
  59.920   83.693  219.213       151.75
 221.131  142.955  339.666       151.73
  10.151  105.367  215.926       151.04
 276.506   20.969  316.423       150.38
  13.925   29.550  125.764       150.35
   1.331   76.319  204.241       148.78
 281.308   24.209  305.329       148.50
 179.718  101.476  322.657       147.69
 352.055   75.259  224.734       147.50
 178.711   61.068   93.056       146.84
   1.649   62.412  323.968       146.71
 191.946   70.182   70.572       146.51
  10.530   76.714  274.262       146.25
 336.346  129.750  312.244       145.78
  45.252  152.575  309.696       145.70
 218.106   94.816  331.600       145.05
  97.346  147.718  204.634       144.87
 192.081  129.886  191.528       144.36
 180.857   48.934   41.150       140.74
 181.775  102.468   83.974       140.69
 173.900  146.204  312.926       140.50
 180.683   87.708  281.960       140.25
  15.482   81.888  263.736       139.87
 200.790   83.195   92.429       139.56
 188.997   51.956  329.302       139.56
 161.962   99.744   37.308       139.50
 350.952   78.410  278.893       138.81
 187.148  130.295  331.672       138.69
  37.713   18.526   25.881       135.85
  36.294  106.676  287.128       135.63
  79.147   24.163   23.655       135.25
 308.062  140.785   16.435       135.13
 156.743  157.211  326.030       134.50
  87.992   23.385  351.662       134.00
 359.030  133.329  212.794       132.85
 169.010   77.932  281.271       132.84
 192.735  142.451  346.443       132.76
   1.729   77.607  215.734       132.50
  16.528   16.849   31.531       132.41
 304.833   62.537  326.788       132.01
 287.462   97.680  198.159       132.00
 273.456  158.296   26.637       131.61
 333.814   90.875  286.696       131.41
 230.299   85.010   10.781       130.46
 201.823   83.408  332.686       129.77
 259.706   29.583  209.621       129.75
 183.710   39.116  222.711       129.60
 223.087   32.107  239.358       129.53
 168.914   34.494  267.869       129.10
 356.638  114.167  213.054       128.84
  16.302   70.764  311.915       128.75
 197.867  101.238   87.679       128.25
   5.495   87.814  275.766       128.03
   2.763  100.555  279.332       127.75
   7.151   98.923  288.949       127.75
 179.694   76.664   31.611       127.18
 298.734  164.732   57.855       126.94
 108.195   20.392   29.529       126.56
 197.803   74.249   79.862       126.34
 253.659  161.284    6.174       126.00
 300.931   37.485  193.238       125.50
 186.613  112.036  311.376       125.41
 186.671   78.327   89.524       125.02
 284.652  153.837   46.214       124.77
 182.860   72.917   89.067       124.51
 139.572   29.841   14.403       124.41
 141.376   10.578   93.994       124.34
 100.150   19.792   71.743       123.62
   0.028   91.868   86.875       123.31
 239.432  113.718  175.058       122.81
 191.297   57.356  321.045       122.41
 195.838  145.136  342.339       122.38
   9.805   81.991  328.791       121.67
 184.303   26.619  218.561       121.22
  84.395   36.708  330.646       120.75
 286.980   39.268  190.737       120.75
 181.433   69.348   83.662       120.75
   5.415   18.024   63.717       119.75
 345.982   93.810  270.245       119.25
 304.214  162.436   48.308       118.81
 191.960   73.764   84.643       118.65
 192.166   98.127  330.096       118.02
   5.525  103.384  274.587       117.87
 102.447  143.476  301.448       117.25
 176.122   76.277   91.186       116.75
 164.510   93.583  330.193       115.68
 340.498   27.870  312.450       115.59
 349.959  139.826   14.775       115.22
 106.458   55.963   74.387       114.88
 299.628   89.730  232.002       114.75
 198.297   87.989  322.019       114.50
 130.567   22.597  288.868       114.25
 176.860   59.322  318.391       114.16
 176.410   92.545   94.298       114.00
 197.224  114.871   19.976       113.69
   7.316   97.368  282.319       113.01
 176.145  112.214  339.732       112.44
   5.594   87.535  335.301       112.36
 177.852   55.103  298.391       112.31
 181.187   71.580  294.396       112.16
 170.467   32.243  218.589       112.15
 184.493  167.539  245.886       111.75
 313.643   95.685   10.907       111.75
 183.184  107.656   78.942       111.63
   8.011  136.558  145.957       111.58
 168.960   86.630   40.087       111.56
   4.442  147.494  137.389       111.54
 196.274   97.407   62.090       111.00
 190.656  100.735  295.579       111.00
  57.231   61.314   95.911       110.47
 349.117   29.996   37.860       110.25
 202.521   71.291  349.945       109.37
 291.090   16.421  203.858       109.00
 292.343  162.651   53.963       108.82
  59.419  149.072    5.430       108.06
 257.328   28.301  218.107       107.91
 239.696  164.874    1.259       107.69
 267.767   18.994  318.208       107.50
 358.531  100.013   18.896       107.31
 180.170   77.321  336.409       107.31
 281.197   36.143   17.038       106.75
 347.063   36.098  353.444       106.54
 109.136  146.138   33.864       106.50
 101.645  151.081  271.912       105.22
 188.128  133.749  316.124       105.10
 274.859  154.932  334.174       103.74
 359.064  107.516  120.356       103.53
 154.377  155.868  261.712       103.11
   4.421   79.086  276.148       103.00
 349.428  102.708  262.588       102.81
 359.090  148.803  146.760       102.46
 280.862  148.390  284.818       102.44
 187.396   85.014   27.044       102.31
 177.771   75.847   76.390       102.26
 219.288   11.095  271.350       102.22
 283.870   25.977  327.570       102.00
 252.492  150.123    4.051       101.50
  85.444   74.942  104.486       101.45
 180.879  106.027   24.120       100.84
 200.782   87.087  315.162       100.80
  56.621   32.061  302.535       100.64
  64.675  114.618  275.289        99.31
  25.584   22.927  340.268        99.15
 189.009   79.634   91.737        99.00
 356.542   44.591  149.839        98.97
 170.645  158.523  233.360        98.88
 346.954   82.938  270.531        98.25
 354.255   86.710  319.829        98.08
 187.157   56.733  338.520        97.98
 346.104   93.892  223.567        97.87
 175.231   95.405  335.369        97.73
 356.911   98.472  260.096        96.00
 178.754  100.460   85.472        95.75
   0.626   68.734  307.022        95.31
 177.663   97.798  277.532        95.05
 285.505   30.965  317.698        94.75
 159.937   35.595  243.165        94.70
 214.205  143.028  274.394        94.62
 174.365   96.371   92.510        94.25
 107.077  139.862  289.637        93.50
 349.862   95.379  263.463        92.39
 294.191   36.637  181.583        92.16
  16.067   91.084  173.353        92.00
 222.082  144.528  342.234        91.74
 251.596    8.256  226.007        91.66
 158.787   45.858  261.364        91.56
   3.747  117.790  269.909        91.39
 183.860   89.722  290.390        90.97
 218.113  149.477    5.507        90.35
 273.147  153.211  221.863        89.75
 168.435   83.266  290.452        89.50
 202.050  113.647  307.456        89.50
 357.053   83.198  318.732        89.37
 190.587  103.674   42.380        89.00
 189.857   40.106  213.870        88.94
 182.261   73.887   69.852        88.94
 200.005   36.085  208.297        88.50
 189.724  106.064   58.447        88.47
 128.662   20.897   46.786        88.44
 342.187   24.314   13.304        88.32
 171.662   81.426  286.943        87.81
 256.546   33.731  338.992        87.62
 257.152   37.863  100.414        87.62
  69.590  145.152   76.804        87.25
 282.644  156.302  307.352        87.20
 193.437   93.331  340.780        86.95
 340.107  178.045  135.048        86.77
 176.434   82.269   35.937        86.75
  95.735   14.645   54.658        86.16
 184.164   26.627  119.583        85.93
 100.197   34.782   15.650        85.90
 180.889   80.108   89.966        84.98
 118.654   77.670   53.001        84.95
   0.020   97.007  282.547        84.75
 178.404   94.499  327.640        84.25
  95.019  153.136  263.066        83.91
   8.833   83.291  268.467        83.88
 178.936   89.576  280.918        83.78
   4.459  147.122   85.016        83.76
   2.663   71.179  137.660        83.25
 217.377   11.716  273.687        83.25
 265.689   62.484  349.274        83.18
 283.184  145.282  227.483        82.43
 144.451  159.078  333.429        82.40
 357.052   92.442  142.171        82.11
 338.403   40.061  218.513        81.66
 198.658  140.269  317.197        81.50
   7.644  110.133  260.697        81.43
 307.263    7.757  326.217        81.09
 357.183  104.970  100.830        81.06
  82.207   35.100  277.292        81.00
  73.128   25.797  355.820        80.60
 356.951  149.473   33.536        80.56
   0.113   79.742  314.048        80.25
 358.660   78.438  284.532        80.00
 308.723  155.416  307.249        79.62
 250.953   74.840  348.563        79.47
 258.924  157.157  359.345        79.37
   0.996   84.633  252.156        79.31
 114.976   22.955   19.438        79.19
 211.549   94.134  331.795        78.97
  54.273   95.741  298.461        78.88
 353.170   74.100  168.555        78.63
  18.946   71.835  251.543        78.48
  11.676  140.203  104.520        78.24
 347.290   11.215  244.450        78.00
 154.248  143.629   76.770        77.91
   1.915   99.939  239.512        77.75
 191.924  103.482  319.211        77.31
 343.743  149.301  331.590        77.00
 264.595   28.228  215.042        76.75
  84.015   26.546  342.224        76.28
 320.845  160.465    2.983        76.07
 168.256   25.330  293.515        75.72
 183.661   76.832   78.804        75.50
 357.841   93.109  216.954        75.22
 193.453   85.781  316.380        75.19
   5.928   35.505  339.136        75.12
 179.771   48.346  327.583        75.00
  75.138   21.070  186.801        74.81
 176.204   80.477   47.280        74.64
 186.476   27.307  152.993        74.57
 119.806   88.002  302.523        74.49
 199.926  152.900  336.773        74.12
 168.094   92.502   33.161        73.59
 301.840  161.689    9.612        73.50
  23.711  147.496  156.228        73.50
 263.394  153.188   29.011        73.41
 126.975   17.094  338.464        73.31
  81.611   30.358   42.459        73.06
 179.237  119.310   18.066        72.67
 181.684   88.657  276.140        72.50
 168.459   83.752  291.432        72.50
  33.023   14.949   31.114        72.50
 350.364   89.655  265.553        72.13
 351.169  103.780  258.929        71.84
  14.406  135.627  204.511        71.06
 347.969   97.594  263.408        71.00
 205.492  142.327  329.324        70.75
 182.510   60.997  326.616        70.63
 239.301  105.746  350.967        70.55
 286.686   32.774  312.241        70.50
 177.773   79.768  273.843        70.40
 184.965   40.750  221.391        70.20
 353.215   11.855  262.441        70.09
  39.703   25.768  112.146        69.97
  11.540  136.964  103.871        69.87
 345.520  114.180  282.390        69.70
  93.516  110.615  110.469        69.63
 359.010  104.087  121.280        69.50
 291.839   28.780  327.677        68.75
 316.299   93.388  352.867        68.68
 109.438   30.419   77.053        68.56
 257.451  151.865  331.030        68.31
 348.025   88.253  329.718        68.31
 259.398   47.593  100.160        68.00
 118.649  163.237  357.503        67.63
 184.069   31.265  275.236        67.25
 186.635  133.100  273.911        66.97
 345.469   43.569  155.263        66.81
  87.701   17.615   22.193        66.75
 347.132   90.528  221.884        66.66
   3.498   80.641  222.606        66.50
 192.538   73.946  306.076        66.00
 199.520  129.538  321.048        65.80
 186.773  141.810  212.391        65.71
  99.352  155.875  109.855        65.50
 293.924  163.583   35.134        65.09
 187.545   23.920  219.565        64.57
 297.664   25.521  320.284        64.28
 159.855   47.461   10.927        64.25
 184.531   95.109   92.545        64.00
 183.665   95.210  319.660        63.69
 347.333   35.314   67.645        62.75
 218.226  162.228  337.552        62.62
 251.302   15.294  230.190        62.50
   8.349   47.505  285.616        62.43
   8.192   37.684  140.731        62.25
  92.910   27.741  257.452        62.16
 166.770   71.754   13.988        62.14
  88.109  143.682  200.667        61.55
  25.382   97.177  266.643        61.50
  36.633  161.321  145.578        61.37
 155.977  148.414  281.422        61.37
 124.980  112.354  250.078        61.22
 288.758  160.190  353.675        60.79
 103.856  149.073  214.258        60.68
 263.649  161.759   51.914        60.55
 184.145   81.641   88.104        60.45
 267.003   17.936  211.722        60.25
 226.986  170.619  350.210        60.14
   3.222   51.067  338.064        60.13
 165.584   96.588   84.468        60.00
 197.491   73.233   81.710        59.75
   3.737   12.621  124.246        59.56
 284.984   17.654  287.230        59.33
   9.856  143.648  224.556        58.86
 299.821  160.742   63.994        58.69
  27.599   83.480  113.730        58.67
 188.680  162.963  342.047        58.40
  92.677   31.162   41.335        58.26
 350.437   95.994  321.885        58.25
 180.511   75.732   50.035        58.25
  15.546   84.447  264.902        58.19
 117.225   22.251  307.715        58.00
 234.518   81.918  172.755        57.87
 252.343  140.112  256.093        57.75
   9.445   88.040   85.828        57.31
  62.307   14.261   45.144        57.25
  76.596  153.019  330.454        57.00
 359.629  101.821  144.250        56.84
 253.188   36.966  342.865        56.75
 355.967   76.370  235.836        56.50
 112.265   18.864   13.484        56.08
 281.865   16.941  102.049        56.00
 287.112  151.905  351.030        55.75
 174.998   73.158   62.057        55.50
 168.277   61.616  339.602        55.45
 355.340  157.835  234.926        55.31
  43.503  154.469   23.583        55.09
  58.712   66.696   74.469        55.00
 180.997   81.746   89.529        54.75
  22.903  143.185  349.193        54.69
  12.668  154.422  240.534        54.34
  75.561   11.628  316.376        54.28
 167.762  107.678  312.039        54.25
 158.630   68.885  296.361        54.25
 185.699   75.011  329.352        54.25
 238.286   84.512  173.302        54.21
 181.369   93.666   71.069        54.12
 349.563   82.182  205.287        54.09
  12.234   95.192  276.991        53.73
 131.712   79.613   59.732        53.72
 304.235   63.960  184.765        53.72
 262.078  171.503   50.148        53.64
 264.614   26.612  342.280        53.62
   5.814   11.196  117.152        53.50
 245.013   87.194  296.787        53.27
 135.037   21.891  345.658        53.26
 186.025   96.968  335.837        53.19
 237.147   23.640  227.577        53.00
 296.497   94.900    3.818        52.76
 195.887  136.733  328.625        52.75
 179.828   90.861  280.331        52.57
  57.194  143.878  241.605        52.56
   8.736   35.524  138.347        52.05
  32.221   44.472   93.406        52.03
 261.027  151.195   31.799        52.00
 204.398  177.289  248.988        51.98
 109.095  142.298  110.282        51.56
  41.109   94.020  183.623        51.25
 197.896  107.646  347.567        50.91
 188.415  139.065  333.491        50.89
  17.757   52.673  265.140        50.53
  93.104  148.064  276.985        50.42
 300.688  100.508    8.082        50.25
 194.851   91.338  104.663        50.25
 167.745   92.687   94.100        50.23
 192.021   79.783   95.203        49.97
   4.108   33.048  323.557        49.00
 237.993   15.110    4.048        48.94
  27.628   24.208  155.221        48.91
 163.661   78.451   51.395        48.75
 343.461  137.434  343.237        48.75
 278.435   49.035   27.526        48.50
 203.735  144.601  113.676        48.26
  84.830   14.794   29.770        48.25
 357.418  148.649   98.424        48.25
   1.316   95.125  271.474        48.08
 200.092  145.436  337.532        48.02
 351.345   34.006  147.231        47.85
 329.947  147.278   25.287        47.75
 354.461   89.917  264.386        47.69
 198.520  118.247  350.953        47.49
  56.816  124.335  241.062        47.40
 184.147   90.856  279.555        47.25
 266.940  157.013   38.508        47.25
  84.801  145.091   81.271        47.09
 105.801   33.772  247.176        47.06
 330.866  157.752   33.981        47.00
 260.903  146.024   37.123        46.75
  52.566  102.180  227.942        46.60
 267.780   21.470  225.518        46.25
 189.532   60.915  190.542        46.25
 177.546  101.195  326.328        45.87
  26.104   86.057  258.897        45.76
 319.888   95.197  300.864        45.75
 181.416  109.894   55.438        45.59
 268.338   64.242  343.842        45.58
  99.601   36.817   26.517        45.56
  13.807   74.238  303.074        45.43
   1.684  148.449  142.310        45.40
 353.549  104.815  283.139        45.25
 255.022  156.992    8.731        45.25
 288.454  101.980   17.625        45.19
  11.934   24.222  100.834        44.92
 269.498  159.269  338.165        44.91
 357.306   85.837  273.034        44.91
 183.376   56.977  312.592        44.75
 173.839   79.519   90.337        44.63
 191.479  100.218  303.420        44.56
  66.441  161.815  315.875        44.43
 289.889  150.723  283.271        44.25
 281.456   20.522  198.560        44.25
 241.397  106.182  176.131        44.08
  15.844  160.719  125.528        44.05
 170.991   88.239   86.178        44.02
  45.034   28.897  107.918        44.00
 210.989   67.846  323.008        43.97
 260.756   89.365  352.375        43.71
 192.177  114.818   23.608        43.64
 257.675  140.998   10.450        43.53
 253.031   33.563  221.614        43.38
 234.985   83.499  188.309        43.31
  19.187   81.911  262.321        43.00
 356.514  166.473   94.001        42.75
   3.710   54.003  337.662        42.73
 170.613   92.591  279.256        42.50
 148.177   98.769   55.481        42.42
 356.072  113.626  257.172        42.15
  73.579  154.983  180.990        42.00
 182.131  163.701  257.335        41.84
 346.742   99.542  309.967        41.78
 225.759  171.067  334.482        41.45
 153.700   95.406   83.268        41.35
 167.515  134.259  326.647        41.25
 195.597   82.405  319.098        41.09
 358.329   94.429  231.828        41.00
 192.926   95.135  302.378        41.00
  40.735   83.373  257.655        41.00
 318.905   32.547  188.562        40.88
 128.994   94.810   71.520        40.88
 167.226   91.158   81.834        40.81
 165.700   27.981  166.760        40.61
 293.467   28.260  191.601        40.38
 328.727   41.325  166.798        40.31
 237.437  131.958   14.412        40.28
 102.506   65.923   69.907        40.26
 193.201   14.982  260.979        40.25
 339.989   86.332  286.904        40.25
 175.329   88.387  328.559        40.15
   2.298   87.382  332.606        40.12
   2.895  150.047  138.537        39.95
  18.294   23.931  126.873        39.75
 352.923   79.596  296.575        39.50
   3.161   99.115  238.163        39.00
  20.748   12.146   42.066        39.00
 305.847  160.445   63.006        38.75
 348.491   96.668  308.444        38.75
 272.607   26.288  327.559        38.49
 242.575   13.537  357.762        38.48
 268.664   50.651  339.073        38.47
 162.946  128.578   62.037        38.35
 260.645  153.674   38.163        38.25
 150.897  134.100  328.945        38.10
 152.799  159.554  315.948        38.07
 289.034  158.627   41.284        38.00
  52.448   19.529    7.819        37.72
 201.352   93.996  316.476        37.37
  65.317   20.745   16.308        37.00
  76.643   37.262   97.833        36.81
 194.065   62.145  132.610        36.50
 286.707  104.975  208.217        36.44
  66.815  121.793  240.099        36.29
 265.418  146.978   24.770        36.25
 220.193   76.009  356.240        36.06
  98.793  142.795   90.046        36.00
 266.159  139.578  332.690        36.00
   7.613   28.389   35.278        35.94
 354.837   70.724  231.969        35.63
 220.042   86.744  176.861        35.45
 135.856  142.551  255.218        35.25
  52.803   23.105  302.419        35.00
 195.202   75.063   28.618        35.00
  43.491   21.240   70.452        35.00
 172.078   78.127   76.559        35.00
 354.688   90.438  254.523        34.96
 311.725  152.999   13.495        34.81
 185.104   34.756  100.845        34.43
 272.172  169.960   93.864        34.41
 102.772  160.381  355.680        34.25
  33.783   18.975  126.531        34.00
 153.238   89.564   90.514        34.00
  95.222  150.554  278.332        34.00
   8.627   98.796  318.764        33.88
  77.338   38.213   75.027        33.82
 113.975  146.558  351.884        33.74
   1.573   51.477  295.095        33.70
 352.526   94.123  269.106        33.50
 178.665   93.286  320.166        33.50
  19.569   92.611  274.676        33.50
   7.054   69.639  146.056        33.44
 348.707   71.183  176.052        33.34
  96.011  107.923   73.516        33.23
 212.693  143.621  224.151        33.00
  89.903    7.020   29.745        33.00
 162.503  145.781  300.615        32.84
 188.558   32.883   96.014        32.59
 230.188  167.817   18.231        32.56
 182.903   81.649   84.695        32.50
 359.703   31.421  149.435        32.29
 187.461   85.808  100.225        32.05
   6.465   87.870  268.211        32.00
  98.344   72.256  335.791        31.88
 197.183   54.368  219.572        31.84
 149.503   84.820  235.889        31.81
 253.859   11.162  349.813        31.80
 358.575  112.161  344.398        31.75
 359.005   83.712  259.532        31.50
  77.789   57.220   95.951        31.50
 182.668   99.939  287.825        31.11
 264.151  147.721  320.391        31.10
  26.664   81.435  278.891        31.06
 175.654   93.247   24.556        31.00
 267.000    9.593   32.093        30.90
  79.419   21.832   48.886        30.88
   7.369   96.163  337.933        30.77
 292.741  146.287  355.943        30.50
 130.025   88.968  259.046        30.44
 321.480  142.203  302.867        30.31
  43.180  159.614   29.267        30.30
  38.140   79.570  243.328        30.19
 196.718  115.337  300.575        30.01
 288.255  105.356  350.257        29.84
 266.138  100.706    1.786        29.66
 174.949   95.369   94.803        29.62
 169.610   91.207   83.401        29.56
 353.071   24.872  118.078        29.31
 182.618   78.306   75.167        29.25
 102.496   47.843   57.533        29.12
 348.521   98.446   65.652        29.02
 272.191  132.353   39.117        29.00
 355.047  111.677  238.914        29.00
 288.476  167.638   32.070        28.91
 149.059   69.609   37.729        28.87
 176.774   85.227   86.029        28.75
 132.078  167.776  179.135        28.50
 340.470   28.799  307.361        28.47
 190.130   97.101  315.873        28.38
  71.339  100.259  290.781        28.25
 263.445   43.488    4.900        27.75
 239.724   80.747  296.734        27.50
 185.485   18.597  110.410        27.47
 346.748   88.369  322.612        27.44
 174.626   94.660   37.744        27.28
 143.142   81.709   38.976        27.25
 269.608  151.324   10.896        27.25
  95.944   25.755   90.753        27.19
 194.878   80.409   22.571        27.16
  76.426   29.756   87.323        27.06
 315.457  166.096  252.661        27.00
  70.815   13.915  328.407        27.00
  15.986   36.546  126.822        26.96
 242.331  108.429  212.569        26.91
  69.757  154.155  184.498        26.81
  14.097   92.021  268.528        26.81
 122.069   68.273   94.410        26.73
 359.172  105.586  350.229        26.50
 296.817   96.346   12.700        26.48
 195.639  106.313  334.363        26.47
 260.790  150.672   19.632        26.38
  69.860   98.913  131.216        26.33
  89.265   13.479   97.760        26.25
  82.131   29.688  281.979        26.25
 104.284   45.633   74.214        26.25
 299.367   70.696  184.587        26.06
 192.279   98.274   59.320        26.00
  30.765  154.880  149.340        25.75
 228.872   30.005  352.235        25.75
 241.205   29.603  335.476        25.69
 333.049   85.873  271.336        25.69
 137.070  162.670  267.839        25.66
 349.915   23.008  126.545        25.50
   2.860   98.207  271.641        25.25
 342.159   79.329  232.474        25.21
 182.409  101.917  293.096        25.06
 180.227   89.462  271.094        25.06
  41.760   24.007  137.524        25.00
 156.321    7.329  326.335        24.86
 345.865   81.506  209.984        24.75
  46.598   89.433  249.879        24.71
   9.137   41.393  286.658        24.69
 270.173   86.047   10.611        24.65
 193.611   82.886  264.987        24.62
 353.976  132.161  219.303        24.56
 185.981   87.783   76.344        24.46
 177.501   29.712  283.525        24.35
 172.675   99.148  326.607        24.31
 177.715   98.993  339.727        24.25
 346.206   74.748  173.225        24.00
   2.394  152.621   22.428        23.91
   9.584   27.263  100.659        23.69
 289.198  143.859  216.601        23.54
  35.927   16.567   82.743        23.25
 286.447   34.543  198.974        23.25
 318.351  146.105  315.465        23.25
 109.435  108.746  262.909        23.19
   7.353   88.091  279.753        23.00
 182.070   81.090  273.822        22.77
 252.754   31.568  216.832        22.75
 191.769   28.040   89.731        22.63
  65.368  157.769  247.024        22.50
  10.603   12.993  339.268        22.50
 188.849   83.078  296.363        22.31
  18.431   39.815    8.874        22.31
 197.333  117.005  104.527        22.28
 176.517   99.138  309.933        22.25
  80.430  151.879  322.565        22.13
 176.251   81.698  307.419        21.78
  36.623   29.453   86.737        21.75
 359.804   69.255  231.807        21.69
  93.996   47.536   82.579        21.69
  19.721  103.137  280.690        21.66
 322.570   84.692  328.609        21.57
 281.026   20.641  336.959        21.56
 181.105   53.531  358.327        21.47
 210.199  140.843  330.281        21.45
 141.127   81.552    2.080        21.43
 213.780  153.131    2.785        21.21
 198.057  150.924  107.836        21.11
 215.565  163.531   96.628        21.05
 210.484  165.638  355.351        21.00
 275.689  165.224  341.477        21.00
 248.605   30.109  207.509        20.91
 184.378   85.733  191.478        20.87
   2.166  105.219  253.385        20.75
 146.509   43.259   49.609        20.75
 108.164  145.596  224.709        20.63
 124.309  109.090  247.088        20.62
 186.087   90.239   79.625        20.50
  66.937   22.637  346.205        20.44
 197.393  110.247  277.299        20.37
 188.251  138.720  292.683        20.31
 116.046  157.868  344.698        20.26
 276.425   32.974  206.255        20.25
 263.554   40.911  350.026        20.25
  72.553  134.128  262.207        20.20
 312.942   21.298  162.167        20.09
 187.511  144.281  339.251        20.06
 180.808   76.334  285.859        20.00
  76.133   19.518  245.414        19.75
 187.601   81.177   77.934        19.75
 303.287  156.464  353.312        19.75
 315.798  155.353   20.318        19.75
   3.212   91.646  290.794        19.72
  15.992   83.199  258.459        19.63
  94.639   80.843  315.266        19.62
 250.413  158.907  320.565        19.50
 177.836  151.061  300.038        19.50
  10.871   81.814  269.513        19.50
 249.856   56.599  345.329        19.47
 347.646   43.047  156.307        19.31
 115.238  175.701  261.666        19.30
 219.376   92.066  176.033        19.25
 192.179   99.032  321.610        19.19
  13.291  100.129  280.473        19.19
  44.779   15.638   30.307        19.13
 192.615   77.583  334.686        19.09
  22.145   98.039  258.227        19.01
 285.730  139.340  348.425        19.00
 288.921  152.137  352.395        19.00
 289.860  110.274  240.246        18.83
 109.867   91.726  301.376        18.81
 232.217   38.217   25.067        18.75
 311.405  147.454   59.002        18.75
  12.187   97.145  252.706        18.75
 184.654  153.108  299.174        18.62
 193.794   93.022  355.280        18.50
 168.873   94.902  278.603        18.50
 226.495  143.063  347.332        18.48
  95.222   31.892   70.606        18.41
 168.487   72.681   64.481        18.01
 348.021   97.459  307.415        17.75
 256.607  158.783   25.491        17.58
 312.446  155.877   11.745        17.50
  76.657   17.914  234.037        17.41
 174.683  114.183  308.465        17.31
 263.653  164.630  149.476        17.31
 222.014   20.355   26.825        17.29
   0.035   80.443  315.658        17.25
  67.157   79.114   98.552        17.20
 323.835   73.914  279.568        17.12
 169.365   95.946   97.323        17.00
 226.160  160.749  106.691        16.99
 160.200   50.412  342.802        16.95
 150.055   89.431   83.535        16.95
 193.859   67.681   84.032        16.87
 251.598  147.134  134.562        16.81
 188.197   32.966  267.844        16.78
   5.478   86.767  270.502        16.75
  53.620  144.050  236.346        16.75
 348.191   26.822   82.009        16.70
 181.931  106.563  331.223        16.59
  78.272  157.567  323.044        16.56
 295.721  157.575  290.622        16.50
 208.913  166.521  267.946        16.50
 170.888   80.926   39.935        16.50
 121.031  156.947  352.494        16.46
  59.527  152.420   62.801        16.25
 229.647  157.598  339.465        16.25
 105.418   24.154  250.761        16.25
 271.998  153.587    9.852        16.23
 179.095  143.541  253.860        16.16
 273.701  115.773   17.518        16.14
 284.718   11.553  209.795        16.00
 308.274  159.990  160.192        16.00
 349.189   77.472  291.825        16.00
 103.319    8.816   20.075        16.00
 348.971   97.583  308.907        16.00
 359.245  147.879  341.433        15.88
  56.354  157.599  253.271        15.80
 263.523   22.296   32.146        15.77
 192.264   24.227  252.461        15.75
 332.879  138.816  331.960        15.75
   7.394   86.865  329.354        15.75
 166.772   85.548   30.781        15.75
 196.273   97.488   81.933        15.65
 358.084   78.512  205.121        15.63
   1.969   56.912  146.853        15.59
 168.974   66.983  313.474        15.56
 229.186   69.182   76.060        15.55
   4.538   41.441  111.776        15.44
 304.314   90.435    3.778        15.31
  38.560   24.281   16.390        15.31
 139.045   78.652  223.321        15.25
  43.594  158.798  139.044        15.25
 175.058   96.253  271.931        15.14
  14.194   43.717  171.232        15.14
 353.631   20.291   63.462        15.04
 230.072  111.273  145.256        15.01
 352.278   98.601  274.542        15.00
 279.025   43.957  335.335        14.88
 269.570   42.783  328.480        14.83
 294.705   88.614  355.078        14.78
 273.649  165.098   41.583        14.75
 337.096   28.933  182.648        14.64
  25.263   36.641  304.235        14.56
   6.563  152.482  332.471        14.56
  81.183   67.639  319.053        14.53
 235.974   86.315  311.295        14.51
 291.070   24.140  189.139        14.50
  95.206  119.260  284.220        14.31
  69.769  152.048   70.543        14.25
   0.812   31.531  151.145        14.25
 147.094  157.736  330.511        14.25
 204.697   77.010  333.632        14.25
  19.001   33.736  124.216        14.25
   3.375  145.622  179.603        14.22
   6.465   81.656  281.556        14.12
 259.121   29.118  210.386        14.00
 254.484  111.716   10.703        14.00
 352.498   22.053   45.952        13.97
 298.362  156.080   44.922        13.89
 192.070  150.133  317.309        13.82
 189.014   79.732  104.808        13.79
 344.953   58.892  248.941        13.75
 279.526   22.393  315.833        13.75
 245.065  143.549   17.706        13.75
 323.846  161.384   21.696        13.75
 120.211   26.738    2.243        13.62
 185.448  116.133  327.725        13.55
  58.583   72.607  107.458        13.50
 191.765   78.084  335.236        13.50
 297.327  135.379  354.344        13.32
  24.201   15.400   96.600        13.31
 154.968   26.005  336.537        13.25
 187.959  102.374  313.805        13.22
 323.201   93.151  306.682        13.19
 238.631   86.667  353.652        13.06
  14.368   89.946  277.322        13.06
 176.467   86.624  277.771        13.01
 327.277  177.452  138.910        13.00
  38.038   88.861  133.375        13.00
   7.977  128.676   59.470        12.98
 226.467  158.079  311.638        12.94
 245.999   91.934  241.216        12.90
  63.298   25.069  348.036        12.75
  13.007   77.794  307.269        12.61
 316.468   95.664  351.319        12.58
 317.142  170.986   25.162        12.56
 117.407  112.131   70.995        12.54
 299.458  156.044  346.084        12.37
   7.995  142.175  166.694        12.37
   2.981   93.303  276.592        12.35
  93.903   26.257  322.291        12.31
 180.105   77.170   63.011        12.31
 301.320   94.352    3.575        12.31
  21.674   21.236  312.388        12.31
 350.039  156.262  293.419        12.25
 164.919  108.569  305.726        12.25
   5.441  130.553  254.680        12.25
 195.636   17.840   53.483        12.16
 191.792  158.996  288.060        12.06
 311.049  143.128   13.916        12.05
  50.549  141.327   36.205        12.00
 141.225   75.863   98.945        12.00
 292.420  145.320    6.143        12.00
 180.864   33.180  201.290        12.00
 350.448  151.114   14.045        11.98
 154.566    7.457  316.738        11.97
  82.237   49.118    1.203        11.88
 246.470   41.971  357.915        11.81
 272.071   66.597    1.743        11.75
 102.713   12.619  310.657        11.75
 292.467   81.674  332.470        11.75
 247.440  162.288  319.745        11.75
 125.012  157.749  248.407        11.75
  91.153   36.662   20.767        11.69
  34.244   70.723   82.991        11.60
   2.584   13.822  142.114        11.59
 135.622  143.950  284.885        11.55
 197.497  112.999  309.594        11.50
 238.365  162.564  357.541        11.50
 201.417   28.966  251.418        11.44
 189.281   62.499  309.165        11.35
  78.974   25.503   54.298        11.31
  75.890   47.240   65.201        11.29
 174.303   76.021   68.575        11.25
 171.675   75.015  298.373        11.25
  68.410  152.486    3.543        11.25
 255.074  153.038  354.907        11.06
 186.080  104.085  310.800        11.06
 109.669   31.586   78.174        11.00
 275.590  156.061  342.699        11.00
 308.387  133.001   20.880        11.00
  35.805  159.942  146.323        10.99
  56.396  147.790  236.925        10.87
 333.545   78.056  229.636        10.83
 340.572   12.937  140.655        10.75
 313.704  158.555   75.418        10.75
 258.816   20.794  351.977        10.66
 152.605  130.414  302.259        10.61
 162.839   21.492  266.788        10.54
 357.778   73.279  265.386        10.50
  37.139   16.268   50.904        10.50
  54.415   27.175   65.462        10.50
 214.303  103.627  306.570        10.41
   1.960  153.484    6.157        10.31
 252.905  167.432   10.599        10.25
 179.480  100.864  324.263        10.25
 346.558   13.623  133.852        10.25
   1.171   56.110  229.847        10.25
 172.770   87.848   90.140        10.25
 187.637   92.931   30.260        10.25
 160.194   30.292  271.256        10.19
  21.102   96.343  317.134        10.14
 176.758   80.033  267.318        10.12
 199.384  114.213  330.505        10.11
   0.064   84.611  285.169        10.09
 180.472   79.563   86.603         9.85
  22.019   40.958   20.663         9.84
 356.940   11.988  126.984         9.75
 333.790   75.173  231.314         9.75
   0.154   88.523  272.444         9.75
   9.484   78.252  306.935         9.75
   0.244   98.949  101.144         9.75
 248.653   27.553    4.002         9.75
 167.145   20.293  217.450         9.69
 158.301  104.253  336.035         9.69
 333.401   80.953  150.108         9.59
   6.412   88.603  276.700         9.56
  73.507  151.052  202.877         9.50
  76.971   22.399   62.770         9.50
 286.061   11.776  177.908         9.46
 267.048   50.623  336.688         9.44
 214.084   83.361  134.373         9.31
 261.347   39.420  342.243         9.25
 182.810   31.003  260.279         9.25
  22.137   37.258  318.507         9.23
 248.242   76.773    1.319         9.19
  97.250   26.201   33.011         9.16
 190.245   79.386   89.972         9.10
 236.949  106.025  174.788         9.00
   3.234   96.361  272.333         9.00
 351.039   88.236  292.507         9.00
 204.970   26.158  259.828         8.92
 312.490  152.850   35.087         8.89
 154.779  141.211  285.386         8.80
 295.477  157.192  238.408         8.76
 103.205   34.665   63.610         8.75
 168.654   87.063   91.798         8.75
 252.285   78.508  358.692         8.75
   7.982   88.681  272.166         8.75
  68.860  161.911  188.907         8.75
  81.993   10.685  156.478         8.56
   1.589   94.065  286.135         8.50
 194.126   79.168  322.454         8.44
  99.117  127.958  110.235         8.38
 195.211   82.482  103.284         8.36
 210.879  108.845  339.029         8.31
 352.697   84.335  324.936         8.25
 183.225  111.501  316.806         8.25
   5.278   94.655  313.726         8.25
 183.060   78.359   95.352         8.25
   0.622   82.933  204.570         8.25
 356.270  146.135   31.318         8.20
  78.566   38.530   79.777         8.06
  13.428  110.448   94.699         8.06
   9.555   79.651  323.336         8.00
   9.278   82.531  331.810         8.00
 180.954  108.031  332.602         8.00
 221.343  145.528  351.587         8.00
  82.793   23.110  222.583         8.00
 168.302   81.234  320.767         8.00
 298.656   48.383  187.197         8.00
 284.953   26.855  329.368         8.00
   7.637  108.547  306.272         7.88
 207.822  108.073  338.332         7.84
 160.363  155.417  305.803         7.76
  95.289   25.284   32.090         7.75
   1.378   94.276   91.377         7.75
 348.361   87.467  271.351         7.75
 100.806  143.027  105.454         7.75
 196.733  151.076  307.791         7.75
  96.478  147.213   98.408         7.75
 174.731   97.941   87.533         7.75
 167.561   61.117  339.445         7.73
  42.169   68.228  333.636         7.67
   1.476  147.552   66.105         7.56
 185.921   90.996   27.225         7.50
   4.436   99.060  265.206         7.50
 102.268   45.706    5.281         7.50
 158.362   90.042   72.863         7.43
 190.520  102.587  310.428         7.42
 117.963   48.315   64.405         7.38
 172.843  166.823  244.229         7.38
 251.237   27.299   20.765         7.33
 125.229   89.755   97.624         7.27
 167.905  103.882  306.881         7.25
 241.663   29.042  224.648         7.25
 190.063   75.161  341.029         7.25
 193.049  100.283  346.351         7.22
 178.373  151.002  294.521         7.16
 245.334   63.041  201.319         7.13
 304.428   87.234  329.892         7.11
 164.749  100.081  316.396         7.02
  98.434  157.776   80.855         7.00
 180.821   82.651  328.153         7.00
 143.148   81.395   97.080         7.00
 281.415   65.892  195.898         7.00
 254.578  168.503   11.647         7.00
 164.873   77.037  285.234         7.00
 328.852   67.221  330.049         6.98
   3.542   91.222  252.158         6.94
 249.855   99.172  347.991         6.91
 204.055   40.830  156.371         6.88
 183.865   26.726  356.552         6.85
  10.003   86.048   56.110         6.85
 322.155  137.263  260.674         6.75
 354.787   80.235  264.567         6.75
  60.971  163.543  191.895         6.69
 273.057  146.200  344.188         6.66
 109.844   69.924    3.004         6.63
  66.020   17.934   16.556         6.56
 254.449  153.493  358.140         6.55
 188.176   83.795  327.822         6.54
 247.792  171.369    5.078         6.50
 268.008  120.351  242.421         6.50
 139.120   97.036  114.068         6.50
   0.713   97.285  224.699         6.50
 330.551   75.784  329.858         6.50
 250.280  161.508    2.419         6.50
 259.541  158.280  358.922         6.50
  32.340   27.247  357.536         6.46
 135.273   83.501   63.953         6.42
  97.713   17.752   29.013         6.39
 252.028  103.570  357.202         6.38
 129.209  116.487  261.944         6.31
 286.462   37.871  318.467         6.28
 313.894  125.270   17.141         6.25
  89.143   60.634   52.672         6.25
 196.071   68.038   18.618         6.25
   2.599   81.409  246.680         6.25
 322.145   12.654  170.352         6.25
 170.811   80.402   80.310         6.25
 126.936   22.394  335.065         6.20
 338.191   47.899   13.507         6.14
 220.834   94.376  201.197         6.06
 194.263  131.123  350.858         6.00
  41.343   84.177  295.883         6.00
 104.614  136.776  283.219         6.00
 192.270  103.542  334.780         6.00
   7.394   85.735  252.338         6.00
 335.583   15.080  152.921         5.96
   2.037   18.756  115.844         5.95
 276.764   82.930  220.241         5.87
  18.383   66.994  299.260         5.83
 355.533  164.401   93.577         5.76
 269.679   67.829  216.980         5.75
 216.887  130.186  205.022         5.75
   0.655  106.235  294.414         5.75
 185.870   91.232  322.057         5.75
 259.262   15.076  222.570         5.75
 188.685   92.070  325.636         5.75
 201.011   22.972   60.169         5.63
 192.954  120.401  309.775         5.62
   7.760   93.906  274.504         5.56
 188.176   90.652  343.302         5.56
  30.252   10.149  156.623         5.53
 183.652   61.912  318.367         5.50
 275.960  159.420   31.603         5.50
 189.802   39.815  327.062         5.50
 345.298   82.284  327.893         5.50
 264.477   30.250  348.123         5.47
  80.271  159.688   77.057         5.47
 280.088   19.996  293.334         5.45
 189.827  157.775  337.661         5.41
 256.462  152.593   26.659         5.37
  42.937   98.427  199.549         5.35
 314.876   21.183  339.254         5.31
 197.011   37.626  203.630         5.25
 184.504   87.575   83.512         5.25
 179.834   89.806  314.373         5.25
 152.489  158.522  320.133         5.25
 173.589   97.281   81.783         5.25
  75.695  164.481  290.363         5.23
 185.984   93.735   83.968         5.22
 348.176   56.367  301.158         5.20
 155.284   33.786  268.908         5.16
 157.599  142.648  319.910         5.16
  60.207  168.298  165.681         5.15
 281.259  120.588  337.257         5.07
 149.914   12.045  198.494         5.06
 163.807  151.668  301.157         5.06
  18.536   19.100  125.675         5.03
 356.506   67.964  301.380         5.01
 149.930  164.164   28.029         5.00
  18.024  149.148  345.502         5.00
 168.675   31.064  326.979         5.00
   4.744   70.309  159.250         5.00
 288.920   19.965  298.943         5.00
 298.461   85.544   12.781         5.00
 268.412  151.172   31.978         5.00
 234.185  153.250  184.985         5.00
 194.592   92.492   48.843         5.00
  57.390   95.805  244.057         5.00
 174.635  115.555   64.569         4.98
 180.283  147.020  292.873         4.96
 133.936  135.247   57.469         4.90
 288.970   72.915   13.031         4.86
 205.101  125.587  216.164         4.84
 181.558  148.351  284.701         4.81
 103.371   66.338   71.486         4.81
 335.798   81.792  301.965         4.79
 175.996  168.160  236.974         4.75
   6.621   30.227  333.184         4.75
  75.906   16.743  357.696         4.75
 266.421  155.880   11.056         4.75
 216.827   88.562  326.139         4.75
  82.477  153.535   79.904         4.75
  23.584  172.752  187.600         4.75
 188.564   98.744  292.659         4.75
 233.472  173.972  338.182         4.73
 205.324  102.436   68.393         4.73
  12.952   34.379  280.720         4.71
 235.950  107.684  175.376         4.70
 215.515  107.326   24.584         4.69
   8.249    5.718  110.114         4.58
   8.097   90.475  272.330         4.58
 159.039  143.844  290.834         4.55
 228.093   67.056  347.499         4.53
 218.314  150.279  343.958         4.51
 189.866   32.893  230.813         4.50
 263.440  172.544   21.118         4.50
 169.602   34.696  347.418         4.50
 185.771  113.864  189.909         4.49
 253.549  117.922  345.077         4.41
 301.947   44.427  284.796         4.41
 303.931   39.739  205.248         4.38
 190.963   23.936  254.128         4.37
 270.430   42.454  352.728         4.36
 279.216   94.488  341.296         4.35
   4.143   87.660   98.643         4.33
 118.824  150.584  346.303         4.33
 357.308   85.804  254.946         4.31
 212.987   15.175  276.394         4.31
  89.981   95.171  104.555         4.30
 276.269   95.870  342.946         4.26
 236.939  150.316  344.615         4.26
 178.775   74.352  298.099         4.25
 148.270  173.410  346.376         4.25
 191.863  107.610  328.455         4.25
 167.360  164.683  255.632         4.25
  89.406  151.178   15.957         4.25
  76.687  153.064  204.816         4.25
 305.122  119.177    7.164         4.25
 122.121   88.997   68.663         4.25
 321.085   87.890  247.193         4.25
 124.163   20.375  112.893         4.25
  13.888  133.610  332.534         4.25
 188.112   62.351  349.710         4.25
  38.286  127.593  148.608         4.22
 359.380   74.835  264.520         4.22
 359.306  148.857  136.858         4.22
 136.291   35.247  354.666         4.21
  19.434   22.774  113.241         4.19
  69.800   44.956   76.115         4.10
 319.725   82.669  304.487         4.07
 229.324  119.969  303.680         4.07
 336.036   45.372  194.979         4.05
 282.700   92.207    9.569         4.03
  88.668  159.836   40.611         4.00
  12.382   86.940  317.304         4.00
 182.770   35.978    0.776         4.00
 279.823  158.125   55.085         4.00
 288.232  157.954  349.815         4.00
 349.962   94.058  166.589         4.00
  18.438   49.910   99.925         4.00
 359.202  150.765   79.208         4.00
 193.835   77.408  109.912         4.00
 109.008   94.657  258.293         3.95
   3.857   41.501  236.852         3.95
 276.753   64.610  342.977         3.93
 279.912   35.775  203.377         3.92
 248.751  134.441  285.832         3.91
   8.721   57.173    0.966         3.90
 353.071   95.278  258.340         3.89
 358.370  104.593  335.823         3.81
 354.546   58.340  161.042         3.81
  41.779   34.702   20.874         3.77
  20.425   28.843  123.477         3.76
   4.767   92.929  278.149         3.75
 123.862  155.021  353.313         3.75
 122.571   49.168  246.060         3.75
 232.577  168.139  316.380         3.75
   1.805   89.868  333.426         3.75
 258.777   17.114  275.349         3.75
  13.030   79.550  265.707         3.75
 118.356   17.990  355.614         3.75
   8.315  105.179  248.087         3.68
 153.526  135.789  279.063         3.65
 248.384   85.687  328.742         3.65
  96.713  137.967   57.919         3.64
 207.093  135.391  321.118         3.62
  72.350  119.113  318.582         3.61
  84.704   50.453   89.297         3.60
 350.330  133.817  239.060         3.59
 177.355   79.677   79.038         3.59
  23.160   56.479  102.322         3.57
 311.481  164.639  304.707         3.56
 135.602   40.741  163.096         3.56
 338.468   59.901  218.632         3.53
 269.585  153.376   21.892         3.52
 206.693  122.219  200.273         3.50
 201.903   91.755  341.135         3.50
 232.865  100.566   21.437         3.50
   7.487   91.544  137.904         3.50
 227.124  155.902  350.497         3.50
 263.037   18.855  218.374         3.50
 332.841   17.620  142.605         3.50
  85.865  158.459  330.273         3.50
 272.401  140.403  116.761         3.50
 275.131  123.266   11.792         3.49
 280.761  135.123    7.951         3.47
 108.708   92.890  287.536         3.47
   6.657   40.969   54.072         3.46
 237.491  110.036  335.982         3.45
 281.862  114.187   27.249         3.44
 311.090   51.163  262.788         3.44
 185.049   71.376   59.482         3.42
 247.823   77.193  344.899         3.41
 262.665  170.366   24.663         3.41
 132.551  142.431  338.631         3.40
 178.637   86.642   68.151         3.40
 296.642   84.160  320.799         3.37
 249.318   99.618   58.413         3.33
  11.581   58.004  110.042         3.33
 333.426   26.282  157.680         3.31
 138.774  105.930   97.432         3.29
  71.849  156.438  298.330         3.26
 177.640   77.961  277.801         3.25
 332.149  139.974   34.441         3.25
 348.575   95.856  302.618         3.25
 267.491  127.091    6.222         3.25
 230.266   25.606   18.878         3.25
 214.086  155.192  109.917         3.25
  18.996  150.347  105.191         3.25
  79.026  160.315  313.753         3.25
 118.771   25.422   16.071         3.25
 291.187  158.733   49.832         3.25
 344.212   86.002  200.227         3.25
 161.065   86.506   87.188         3.25
 203.434  126.107  192.553         3.22
  13.338   77.546  318.627         3.20
 335.843  126.037  243.340         3.19
 109.439   55.295   72.711         3.19
 174.314  138.449  352.376         3.18
 302.915  135.982  235.194         3.16
 134.849  126.630  264.782         3.13
 333.406  147.641  345.950         3.13
 195.287   83.650  203.943         3.12
 250.364   75.646  353.518         3.12
 355.250  151.266  144.846         3.10
 177.703   59.016   35.942         3.10
  89.636   80.746   78.237         3.08
 155.926    9.387  279.262         3.06
 169.470   92.290  324.084         3.06
 290.722   74.269  336.683         3.05
 164.623   94.796   70.517         3.03
 199.956   77.779  311.881         3.03
 239.153   98.500  214.753         3.02
  41.181  104.268  248.541         3.00
 298.414   97.336    6.449         3.00
 290.966  125.873  358.373         3.00
 213.036  158.265  346.711         3.00
  12.070  102.866  266.218         3.00
  75.617  145.109  318.435         3.00
 340.275  122.048   28.142         2.96
  76.459  116.052   26.853         2.94
 235.113  103.028    5.656         2.94
   9.643   77.570  128.049         2.93
 247.699  109.323  338.827         2.92
 198.723  139.533   94.080         2.91
  67.200  103.077  306.434         2.91
  18.684   41.292  168.007         2.90
 149.130   61.517   60.290         2.89
 267.266  106.313   13.194         2.87
 123.483  109.893  207.180         2.87
  12.857   36.369  134.488         2.84
 247.256  117.738   43.227         2.84
 101.386   44.579   32.876         2.84
 273.654   89.652  315.237         2.83
 109.905  169.335  187.348         2.82
  31.921   94.820  112.537         2.81
  60.199  170.065  129.465         2.81
 298.124   19.620  189.337         2.81
 180.981   93.257   59.990         2.81
 238.298  133.209  337.099         2.81
 256.420   90.814  220.040         2.80
 327.778   58.575   27.858         2.79
 304.906   78.178   65.373         2.78
 356.052   76.164  190.729         2.76
 191.090  100.945  357.586         2.75
  92.957   68.939   69.005         2.75
 280.274   19.539  202.072         2.75
  11.863  142.281  253.197         2.75
 171.351   83.313   79.523         2.75
 192.459   75.774  324.485         2.75
  93.397   62.825   59.443         2.75
 345.234  145.505  177.140         2.75
 210.432  148.545  200.772         2.75
 113.924   26.232  299.434         2.75
 345.809   87.253  329.812         2.75
 194.384   89.477  290.539         2.75
  79.754  147.870   89.908         2.75
  67.723   16.451   49.748         2.75
  90.032   62.898  316.776         2.73
  87.087  152.227  241.947         2.73
  92.381  116.935   24.413         2.71
  45.887   99.176  250.399         2.70
 184.039  145.513  319.560         2.69
   6.762   48.627   54.345         2.67
  46.741   62.309  124.842         2.64
 164.085  120.851  195.925         2.63
   4.816   47.762  235.895         2.63
  19.778   61.969  322.637         2.63
 306.636   92.888   46.520         2.62
 249.974   59.004  305.666         2.61
 202.307  121.356   43.557         2.59
  28.383  155.002  193.147         2.57
  39.490   48.166  215.030         2.57
 181.245  102.497  323.471         2.56
 127.757  168.775  258.486         2.56
 109.251  122.921   76.114         2.56
  41.203   40.981  335.727         2.56
 154.077  140.424  252.887         2.54
  42.948   70.697  299.874         2.54
  99.152  138.749  276.152         2.54
 182.358  132.818   85.561         2.54
  40.708   60.595    4.418         2.53
 287.711   65.202  337.677         2.53
 298.459   69.324  275.397         2.53
 180.104  122.266   61.857         2.53
 142.091   94.829  300.117         2.53
  45.067  162.028  163.736         2.52
 298.833   57.415  305.923         2.52
 332.401  146.545   34.749         2.50
 194.276   81.394  317.351         2.50
 325.793   82.587  204.539         2.50
 188.898   35.390  352.797         2.50
 249.677  159.940  302.527         2.50
 357.151  116.352  226.377         2.50
 348.014   76.572  170.551         2.50
 342.807   90.585  326.002         2.50
 332.645  149.806  260.584         2.50
 208.552  116.236  319.775         2.49
 248.940  158.712  356.280         2.47
 210.062   88.173  114.540         2.47
  28.449  156.779  239.464         2.47
 316.675   70.501   13.100         2.46
  71.866  139.471  236.673         2.46
 332.778   33.938  190.217         2.46
 230.914  125.917  147.992         2.46
 180.753   77.887  336.999         2.44
 279.696   49.620   39.716         2.43
 350.513   44.575  186.838         2.41
 243.138  118.202  335.282         2.40
 252.776  100.734  220.097         2.39
 108.403   42.952  179.786         2.36
 233.454   81.410   45.568         2.35
  66.325   21.934   22.974         2.34
 315.662   59.599  262.967         2.33
 335.149   40.908  192.326         2.33
  13.815   59.235  314.251         2.33
 164.251   92.798  284.583         2.32
 205.299  165.386  324.296         2.31
 199.416  141.871  352.633         2.31
 280.550   41.329  204.316         2.29
 118.700  103.610  234.222         2.29
 353.289   75.959  297.647         2.29
 299.304   50.627  349.615         2.25
  73.099   19.567   69.937         2.25
 344.821   81.718  258.612         2.25
 208.327   80.520  179.901         2.25
 251.597  158.522  246.072         2.25
   7.366  103.719  218.974         2.25
  54.620   28.702  295.069         2.25
 328.997   22.710  267.005         2.25
  96.607  130.157  270.877         2.25
 258.909  158.154  304.953         2.25
  41.452  103.807  247.716         2.25
  80.419   33.813   63.828         2.25
 187.842   94.160   92.751         2.25
 183.253   92.746  316.294         2.25
 338.201   30.401    6.540         2.25
 227.160  158.709  314.428         2.25
 339.653   58.681  256.585         2.24
 219.399  115.876  183.797         2.24
 104.940   64.662   65.883         2.23
 207.819  138.613  288.656         2.23
 331.757  122.709  175.349         2.22
 202.710  131.174  302.567         2.21
 286.691   67.724  334.719         2.21
 269.816  163.219  327.878         2.19
 193.258  137.502  326.726         2.19
 232.052   78.344  305.071         2.19
 126.360   92.795   78.659         2.18
 240.518   83.282  195.317         2.16
 358.823   94.090  346.920         2.16
 222.454  130.031  321.420         2.14
 269.631   73.898  340.463         2.10
 320.669   47.583  322.004         2.09
 108.323  116.048  262.599         2.09
 241.679   89.347  219.155         2.09
 111.602   40.642   19.699         2.08
 275.931  172.773   41.209         2.08
  85.116   98.373   71.008         2.08
 188.418   37.852  307.937         2.07
 116.395  161.340   63.635         2.07
 213.458   97.419  326.877         2.06
   0.743   77.186  322.232         2.06
 166.418   35.869    1.511         2.06
 212.374  124.050  179.343         2.05
 253.700   88.798  311.336         2.05
 354.382   50.261   15.515         2.04
 159.139  119.692   41.778         2.03
 358.797   87.517  271.375         2.02
 150.543   37.743   72.226         2.01
 183.230  138.140    2.655         2.01
 346.805  153.907  300.532         2.00
   6.104   91.851  278.009         2.00
 153.343   74.712   13.952         2.00
 201.058  164.770  317.175         2.00
 359.406  101.278  145.237         2.00
  46.188   77.716  235.773         2.00
 190.073   71.644  314.869         2.00
 127.571   21.198  285.987         2.00
  84.811   17.711  327.222         2.00
 131.975   65.182   62.692         2.00
   2.280   90.411  287.871         2.00
 196.750    7.554  296.613         2.00
  39.739   86.462  252.683         2.00
  25.750   26.163  302.592         2.00
   8.239   94.387  268.476         2.00
 191.020   84.017  109.080         2.00
 273.574   18.352  346.589         2.00
 283.443   31.623  328.421         2.00
 205.379  120.963  321.562         2.00
  80.809  123.622  185.086         2.00
 339.798   51.386  246.482         1.99
 259.962  166.160  322.133         1.99
  44.785   21.579  275.260         1.98
 244.447  167.070  107.375         1.98
 336.258   63.568  337.405         1.98
 350.625   63.520  191.878         1.97
 144.277  129.517  316.089         1.96
 111.868   32.420   62.245         1.95
  43.418   59.946  255.889         1.94
 285.081  161.466  308.005         1.94
  72.949   45.288  271.249         1.93
 283.069   67.487  339.513         1.91
 193.336   51.953  195.721         1.91
  60.319   66.295  289.529         1.91
 110.549   18.913   96.330         1.90
 158.323  131.076   69.647         1.90
 275.037   83.920   36.347         1.89
 319.596  147.060  359.934         1.88
 194.701   90.372   20.636         1.88
 237.102  109.261  329.986         1.88
 168.145   82.977  293.549         1.87
 259.712   91.797  341.617         1.87
 218.231   31.059  226.900         1.86
 267.463   71.945  319.620         1.86
 267.428  138.770  334.839         1.85
 272.376   68.076    2.815         1.84
 227.089   86.923  259.999         1.84
   0.987   41.704  240.044         1.82
 256.845  124.033   46.461         1.82
 306.658   66.944   29.455         1.81
  79.768    8.622   49.187         1.81
  18.845  102.959  274.191         1.81
 308.950   43.214  303.129         1.81
 164.597  139.334  260.013         1.81
 113.560  110.875  319.827         1.81
 312.462  103.956   13.611         1.80
  10.764   83.676  239.775         1.79
 328.523    5.313  202.569         1.79
 267.826   88.220  321.089         1.78
 339.597  168.126   23.972         1.78
 345.807  108.605  286.199         1.78
 258.976  118.834  344.316         1.78
 136.076   55.902   93.550         1.78
 288.828   12.494  185.604         1.77
  17.728   20.698  119.803         1.76
  89.017  114.822  255.076         1.76
 192.160  139.456   67.792         1.76
 308.890   67.050  325.468         1.76
 348.326   96.701  247.383         1.75
 189.688   99.031   37.640         1.75
  71.691   20.430   13.298         1.75
  73.882   45.462   68.598         1.75
 358.712  149.310   63.391         1.75
 333.073  106.450  285.806         1.75
 179.638   98.279  277.744         1.75
  96.832  151.145  341.468         1.75
  79.323  123.339  243.171         1.75
 348.199   87.268  213.400         1.75
 276.417  155.354  344.855         1.75
 276.923  155.821  225.943         1.75
 192.536   37.428  225.077         1.75
  25.341   43.385   70.614         1.75
 268.680  152.302   33.304         1.75
 205.186   26.827  259.222         1.75
 259.958   37.997  342.956         1.75
   0.264  130.260  336.155         1.75
 168.581   37.035   10.319         1.75
  13.190   45.190  155.247         1.75
 165.548   35.904  349.430         1.75
 152.759  120.198  311.069         1.75
  64.648   34.455  293.654         1.75
 188.887   97.715   86.396         1.75
  14.814  139.473  242.686         1.75
 167.313   50.145  225.351         1.75
 317.032   57.761  207.237         1.75
 339.535   68.886  302.596         1.74
 101.006  120.985  247.830         1.73
 220.022  115.728  178.170         1.73
 287.602   35.243  327.090         1.73
  69.252   62.283  119.810         1.73
   4.837   32.739  267.829         1.72
  91.409   90.994  102.936         1.72
 354.756   42.496  184.333         1.72
  83.140   42.886  327.596         1.72
 152.945  123.420  100.863         1.71
 177.662  123.377  221.313         1.70
 133.476  125.734  212.761         1.70
 286.116   90.953   37.322         1.70
 274.757  148.919  271.005         1.69
 194.192  152.449  333.879         1.69
  25.587   18.264  221.286         1.69
 233.591  138.476  337.128         1.68
  51.415   70.028  256.394         1.67
 188.865  119.932  338.053         1.67
  47.691   47.794   39.842         1.66
  42.219  103.911  249.407         1.66
  24.269   45.147  184.378         1.65
 336.160   62.333  227.479         1.65
 198.860  132.686  315.912         1.65
 265.456  153.539  196.281         1.64
 302.063   73.722  333.075         1.64
  17.596   64.896  310.666         1.64
 323.754   93.160    5.016         1.63
 321.762  105.233   17.902         1.63
 248.980  111.283  176.169         1.63
 180.587   69.934   82.476         1.63
 195.488  124.103  307.231         1.61
 237.367   83.478  331.838         1.61
  88.751   62.903  269.491         1.60
 117.984   78.823  359.712         1.60
 333.275   21.754  283.764         1.60
 242.627  115.196  301.994         1.60
 267.899  155.797  355.921         1.59
  73.148   71.002  133.824         1.59
  91.098  109.205   18.981         1.59
 310.138   50.857  330.896         1.57
  61.416   84.397   84.892         1.57
 278.748  153.573  330.989         1.56
 126.299   85.778  105.068         1.56
 255.577  121.584   37.310         1.56
 131.827  124.481  239.110         1.56
 116.339   99.140   84.453         1.55
  17.836   65.162  105.973         1.55
 271.357   70.111  302.826         1.53
 168.394  126.052  297.607         1.52
 359.528   29.721  117.911         1.52
 273.950   78.228  290.431         1.51
  11.575   78.428  303.757         1.50
 216.136   92.134  309.984         1.50
   7.932   88.599  278.891         1.50
 124.548   13.852  345.647         1.50
  88.870   59.007  235.443         1.50
 285.081   90.698    7.230         1.50
 355.756   81.228  146.855         1.50
 177.740   25.391  299.791         1.50
  95.663   25.453  317.468         1.50
 179.391   36.556  302.587         1.50
 186.520   51.709  227.106         1.50
  23.960   96.712  266.742         1.50
 307.696  159.068  158.953         1.50
  69.840   23.027   57.955         1.50
 309.656  161.637   41.546         1.50
 259.567   27.085    5.885         1.50
 345.720  141.800  297.177         1.50
 349.810   85.214  325.833         1.50
 353.738   84.015  255.955         1.50
 166.482  103.593  325.781         1.50
 356.527   89.732  321.696         1.50
  70.477  155.850  178.131         1.50
  67.485  129.461  246.019         1.50
   5.230   72.090  326.637         1.50
 342.217  103.051  339.956         1.50
 207.968  149.750  296.614         1.50
 230.607   31.488   23.128         1.50
 265.021  137.667   16.904         1.50
  91.906   97.833  280.779         1.50
  91.382   44.237  322.716         1.50
   8.368  133.928  107.192         1.50
  99.008   47.919   52.439         1.50
 189.812   29.100  356.806         1.50
 269.943   85.803  332.759         1.50
 135.413   29.159    5.422         1.50
 305.345   62.922  163.970         1.50
  16.990    1.827  295.285         1.49
 273.303   88.636    9.500         1.49
 290.449   79.595    6.105         1.49
 222.783   77.759  185.538         1.49
 137.028  135.306  230.558         1.48
 222.442   97.770  266.203         1.48
  91.560   86.790  140.177         1.48
 244.985  114.497  337.173         1.47
  86.504  120.086  197.843         1.47
 162.016   94.848  234.306         1.45
 188.465  148.678  241.853         1.44
 166.727  118.582  322.721         1.43
 213.679  148.889  353.136         1.43
  15.076   61.679  356.978         1.42
  69.111  145.811  311.779         1.42
  83.889  106.828   93.199         1.41
 243.132   34.023  116.662         1.41
 222.330  128.221  351.588         1.41
 138.310  136.748  306.868         1.41
 170.995   42.025   97.537         1.40
 201.896   80.611  309.136         1.40
 105.407   95.782  139.911         1.40
  59.758  115.440  294.009         1.40
 349.261   99.059  180.137         1.40
 121.307  123.631   84.530         1.39
   4.246   57.719  331.019         1.39
 294.130   48.642  274.283         1.39
  80.215   88.160  262.904         1.38
  23.768   45.372  165.181         1.38
  80.691   89.351  293.919         1.37
 298.072   29.799  175.002         1.37
 250.005  117.060  350.858         1.37
 277.626   73.061  310.832         1.36
  53.484   68.743  311.461         1.35
  58.759   37.442  121.163         1.35
 181.435  139.366  309.998         1.35
 227.924  126.820  177.768         1.35
 205.070  168.880  320.338         1.34
  15.583   62.165  348.530         1.34
 127.753  132.150  299.868         1.34
  92.884  104.034  317.779         1.34
 182.424  147.303  334.163         1.34
 249.016   43.217  345.654         1.33
 190.717  158.970   28.828         1.33
 317.712   53.805  206.823         1.33
 298.124  134.937  344.571         1.31
 310.789   53.654   27.641         1.31
 217.890  154.553    4.053         1.31
 359.638   59.463  174.538         1.30
 270.192   48.912  203.047         1.30
 207.850  113.545   51.282         1.29
 299.679   79.953  274.835         1.27
 277.469   78.661   42.908         1.27
  51.465  101.248  240.184         1.27
  92.110   94.454   44.321         1.27
 239.205  120.501  334.385         1.27
 358.800  100.316  279.190         1.26
 265.722   77.770  342.222         1.26
  92.277   97.477   22.269         1.26
 152.632   80.864   59.121         1.26
 220.718  158.284  287.389         1.25
 323.394   40.590  304.882         1.25
 287.145  103.149  195.304         1.25
 150.121   38.235   12.209         1.25
 347.573  107.002    2.011         1.25
  43.938   69.179  218.195         1.25
 351.693  121.061  203.119         1.25
  85.366   58.421  322.644         1.25
   9.011  140.660  227.968         1.25
 266.481  139.809  333.572         1.25
  42.262   59.816   72.242         1.25
  91.513  159.780  255.259         1.25
 193.425   39.051  344.270         1.25
 192.691   38.745  344.842         1.25
 179.153   84.221   88.823         1.25
  95.664  155.473   73.889         1.25
 269.409   39.455  336.982         1.25
  85.368  146.594  326.665         1.25
 307.794  164.354    6.142         1.25
 315.199  149.496  341.435         1.25
 332.755  124.256  192.981         1.25
 343.571  140.318  177.692         1.25
 171.140  103.612  312.462         1.25
   9.079  150.921  180.844         1.25
 194.960   54.873  290.731         1.25
  62.119   32.536   70.294         1.25
 293.107  158.424  346.727         1.25
 251.063  158.857  285.239         1.25
 239.413  110.195  334.425         1.25
 354.909  113.326  184.693         1.25
 131.151   31.336   83.916         1.25
 200.887   55.209  181.339         1.25
 345.002  143.171  256.321         1.25
  76.786   35.581   56.753         1.25
 208.297   78.334  299.999         1.25
 230.092   31.907   22.569         1.25
 148.688   37.207   74.074         1.25
  64.966  136.881  119.439         1.25
 185.184   25.074  357.532         1.25
 134.454   54.602   42.506         1.25
 167.824   93.086  282.364         1.25
 175.219   93.312   79.983         1.25
   5.020  132.535   60.853         1.25
 100.673   48.844   49.924         1.25
   1.214  141.069  231.518         1.25
  79.419   31.711   44.810         1.25
 267.511   95.353    8.920         1.25
 169.790   88.661  223.163         1.25
 164.627   59.359   74.997         1.25
 132.340   34.369  354.756         1.25
 256.811  100.234  340.562         1.24
 337.639   30.885  308.459         1.24
  86.738   58.956   63.394         1.24
 204.750   82.140   98.261         1.24
  92.638  116.772   99.086         1.24
 334.115   63.083  256.036         1.23
 353.452   53.315  115.773         1.23
 157.531  130.664  347.305         1.22
  19.308   74.060  327.379         1.22
 279.168   91.614  198.304         1.22
 345.264   55.960  308.777         1.21
 140.244  112.147  276.141         1.21
 108.348   99.482   82.852         1.20
 196.396   83.379   90.179         1.20
  36.370   40.609  160.602         1.20
 101.047  121.623  307.188         1.20
 213.456   55.882  323.526         1.19
  87.002  128.098  125.147         1.19
 238.909   93.126  332.328         1.19
  39.363  157.560  131.154         1.18
 212.427  120.616   26.957         1.18
 251.963   45.863  254.513         1.18
 226.389  155.538  290.026         1.18
 123.250  108.753  210.801         1.18
 250.849   75.549  342.361         1.17
 359.238   69.610  244.155         1.17
 318.876   43.718  263.877         1.17
 260.800   63.757  217.305         1.17
 221.509  108.496  100.116         1.17
 250.639   89.182  338.857         1.17
 339.982   64.559  264.203         1.16
  99.848   65.617   92.416         1.16
  75.379  101.484   78.830         1.16
  31.945   52.831  111.757         1.15
 217.046  124.511  334.893         1.15
 352.636  107.680  224.250         1.15
 243.441   95.833  334.884         1.15
 209.953  132.033   21.551         1.15
 325.922  119.380  340.164         1.15
 163.898  143.359  299.456         1.15
 355.507   78.947  104.440         1.14
  92.665   83.691   52.674         1.14
  37.493  136.840  242.656         1.14
 115.253   97.741  349.407         1.13
 168.602  128.411    9.615         1.13
 255.915  139.522  346.133         1.13
 124.132   51.025  176.754         1.13
 274.501  101.886  335.285         1.12
 296.111   72.884  269.484         1.11
  19.548   31.263  309.413         1.11
 253.138  115.043   42.403         1.10
 114.022  101.479  343.003         1.09
 304.101  164.388   60.303         1.09
 184.852  141.362  253.547         1.09
 111.684  109.188  323.866         1.09
 236.117   81.879  174.219         1.09
 137.242  119.584   59.260         1.08
 305.313  113.955   20.779         1.08
 266.405  132.805   65.030         1.08
   8.435  110.835  322.080         1.08
  69.605   83.035  297.368         1.08
 310.090   44.130  327.311         1.08
 100.481  114.817   75.899         1.07
 171.758  113.937  298.650         1.06
 328.339   24.164  171.590         1.06
   0.851   50.907    5.526         1.05
 293.812  101.396   34.417         1.05
 262.486   54.637   13.162         1.05
 302.050   73.992  214.530         1.04
 230.411  103.561  284.088         1.04
 181.585  125.605  192.870         1.04
 194.637  139.927  175.751         1.04
 105.702  107.177   76.522         1.04
 356.365   39.696  170.260         1.03
 274.728  148.422   41.706         1.03
 164.525   89.054   73.657         1.03
 200.013  128.087  233.748         1.03
 129.260  133.150  358.283         1.03
 233.562  153.887   69.231         1.03
   6.770  127.618   12.036         1.03
  51.636   70.641  175.155         1.03
  43.475   79.706  270.732         1.02
 192.080  124.387   92.261         1.02
  97.386   83.791  268.163         1.02
 320.995   90.699    4.929         1.01
   3.082   64.480  184.981         1.01
 204.446  101.482   20.784         1.01
 324.365   53.120  248.269         1.01
   3.079   50.332  134.199         1.01
 329.884  122.932  207.344         1.00
  68.973   12.822    6.858         1.00
 166.320   33.336  337.496         1.00
  37.641  102.012  258.601         1.00
 111.321   26.847  242.460         1.00
 181.342   83.834   88.228         1.00
 187.300   42.817  244.493         1.00
 265.631   80.234  269.059         1.00
 179.334  152.390  308.612         1.00
 121.588  105.608  117.470         1.00
 347.687   96.002  308.941         1.00
 193.775   41.983  344.846         1.00
  68.614   20.808  280.973         1.00
 177.644   79.369   88.455         1.00
 168.551   79.185  290.526         1.00
 259.296   55.511  357.287         1.00
 275.005  156.011  340.615         1.00
   4.434  107.436   12.448         1.00
  13.790  151.557   99.588         1.00
 177.720  101.813  308.001         1.00
 297.718   28.164    4.013         1.00
 213.791  106.405   63.752         1.00
 277.274   19.923  204.305         1.00
 332.081  118.497    9.160         1.00
 101.019   24.759   14.229         1.00
 137.882   18.025  160.335         1.00
 269.139  101.054  304.773         1.00
  53.002   74.617  323.415         1.00
 337.636  130.603  317.823         1.00
 330.412  147.439   20.427         1.00
  13.329  153.413  207.489         1.00
  12.962   95.906  247.516         1.00
 255.964   43.348  215.071         1.00
  15.184  152.032   29.740         1.00
 165.445  106.270  291.300         1.00
  62.219   32.145   69.864         1.00
 169.831   90.743  320.402         1.00
 168.076   90.836   83.602         1.00
 349.759   90.514  218.370         1.00
 188.716   85.144  351.620         1.00
 331.855   22.646  160.324         1.00
 186.532   26.636    4.431         1.00
   5.865  153.782  234.980         1.00
 187.792   26.663    2.296         1.00
  10.703  158.075  194.636         1.00
 337.609  118.532   37.778         1.00
 285.511   22.204   14.736         1.00
 231.157   25.667   17.845         1.00
 275.482  136.827  336.329         1.00
   2.688   80.409  215.573         1.00
 160.506  102.284  102.935         1.00
 225.002   20.522  357.000         1.00
 125.869   24.005   83.569         1.00
 281.167   35.998  195.045         1.00
 117.192   86.093  234.890         1.00
 164.173   34.268    3.990         1.00
 345.488  144.330  176.220         1.00
 347.616  145.711  182.250         1.00
  48.371  146.404  336.814         1.00
 229.869   32.548   21.998         1.00
   2.323  121.375  320.583         1.00
   0.986  149.379  224.675         1.00
 249.162   43.690   27.504         1.00
 359.790   96.565  112.605         1.00
 186.393   36.038  258.446         1.00
 358.665   81.168  317.045         1.00
 357.164  140.279  130.444         1.00
 213.204   42.877  309.142         1.00
  57.252   33.662  331.626         1.00
 194.068   99.532  294.753         1.00
 177.152   91.232  327.253         1.00
  38.057   21.358  297.010         1.00
 352.799   83.821  266.629         1.00
 207.236   35.308  290.720         1.00
   9.531  138.914  250.590         1.00
 336.390  141.945   18.603         1.00
  22.337  144.734  244.290         1.00
 348.343  143.118  356.161         1.00
 324.814  124.545    2.664         1.00
 352.098   43.003  335.595         1.00
  27.093  157.613  238.328         1.00
  13.374  142.202  256.719         1.00
 255.463  113.569   30.761         1.00
  15.553   91.038  277.920         1.00
 321.641  123.559   22.187         1.00
   8.982  149.264  183.044         1.00
 302.296  154.180  151.492         1.00
 306.626  176.527  356.791         1.00
   8.511  149.707  262.839         1.00
 314.121  111.926  299.367         1.00
 210.979  114.896  348.865         1.00
  17.358   62.218  276.010         0.99
 244.038   83.874   98.335         0.99
  38.588   71.021  275.916         0.99
  23.226   27.752  139.283         0.99
  62.508  102.408  241.688         0.98
 256.446   34.284    9.887         0.98
 358.849   47.615  208.716         0.98
   7.025   38.673  233.459         0.97
 217.436   86.741  138.910         0.97
  44.109   75.574  276.027         0.97
 216.865  114.469  115.023         0.97
  20.719  151.768  131.606         0.97
 176.992  127.409  241.034         0.97
 350.583   58.403  276.170         0.96
 190.696  146.543   13.764         0.96
 198.511  120.248  355.654         0.96
 102.660  132.806  326.329         0.96
  86.569   62.221   24.219         0.95
 287.137   19.870  215.196         0.95
 346.328  144.304   57.329         0.95
 287.913  138.798  350.430         0.94
 333.246   81.008  305.831         0.94
 134.556  163.396  298.362         0.94
  52.627   79.953   89.985         0.94
 183.254   90.346   69.420         0.94
  98.726  112.857  261.298         0.93
  73.616  114.819  242.578         0.92
  78.065   78.156  141.608         0.92
 105.666   87.940  127.752         0.92
 191.190  150.644  231.266         0.92
  21.196   85.733  266.695         0.92
 346.024   38.816  188.371         0.91
  22.231   57.546  287.691         0.91
 332.587   82.074   11.071         0.91
  66.799   60.055  172.094         0.91
 195.408   16.941  335.446         0.91
 284.158   84.321   73.206         0.91
  72.402   68.126   40.338         0.90
 116.998  150.950  246.963         0.90
 205.021  133.744  262.031         0.90
 105.735  117.747  195.112         0.90
  57.561   79.421  269.570         0.90
 175.376   77.408  349.090         0.90
 314.833  116.988  317.343         0.89
  77.662  164.896  313.561         0.89
 201.510  138.773  339.821         0.89
 101.424   13.624   24.296         0.89
 132.137  130.952  305.945         0.89
  17.161   42.348  322.852         0.88
 232.723   62.039  211.898         0.88
 320.500   30.843  171.048         0.88
 294.162   74.589  334.766         0.88
 332.709  139.619   12.821         0.88
  86.206  110.300   83.012         0.88
 145.094  132.967  214.015         0.87
 237.842  117.679   81.204         0.87
   5.295   47.121  117.300         0.87
 349.044   54.911  274.402         0.87
 242.855  104.519  337.040         0.86
 112.789  150.596  285.871         0.84
 227.768  128.255  118.944         0.84
  98.741  104.924  271.906         0.84
  92.404  131.625   88.823         0.83
 319.267   88.138  162.323         0.83
 239.809  119.520   98.475         0.83
  77.560   80.670  321.716         0.83
  46.032   63.615  270.240         0.83
 341.983   36.091  157.484         0.83
  35.078   73.548  327.078         0.82
  63.396   31.495   71.952         0.82
 323.201   42.349  145.143         0.82
 326.784   84.234  333.089         0.81
  68.934   66.100  263.122         0.81
 238.683   59.873  326.211         0.81
 268.755   83.269  287.341         0.81
 290.667   63.063  319.395         0.81
  64.477   55.776   80.578         0.81
 325.534   45.383   23.173         0.81
 118.734  110.654  239.829         0.81
 102.178   94.539   95.453         0.81
 226.995   87.258  186.657         0.81
 245.911   23.101  306.986         0.81
 238.727  133.639  304.460         0.80
 132.715   42.133  170.980         0.80
 119.311   98.510  226.081         0.80
 334.132  168.599  132.535         0.80
 246.697   81.491   44.078         0.79
 223.245   93.618  259.768         0.79
  94.245  112.700  261.938         0.79
  89.247   92.333  256.387         0.79
   2.273   46.814  177.444         0.79
 109.240  106.708  253.084         0.79
 260.418   83.848    9.225         0.79
 101.986  156.321  223.839         0.79
 203.274  120.725   74.847         0.79
  90.624   13.145  357.566         0.78
  17.066   38.850  147.846         0.78
 152.365  119.439   38.367         0.78
  92.129   50.054   92.723         0.78
  31.498  105.547  192.866         0.78
 209.552  120.663  105.117         0.78
 303.438   73.232   40.453         0.78
 173.180  121.653   55.890         0.78
 100.711   77.215   96.087         0.77
  13.700   40.473   26.184         0.77
 141.025  120.113   41.804         0.76
 103.437  112.121  279.925         0.75
 168.479   32.353   63.655         0.75
 356.443  149.390   62.065         0.75
 261.384  125.502  200.691         0.75
  19.014   23.750  298.076         0.75
 174.786   96.448   83.127         0.75
  52.406   28.854  125.348         0.75
  69.959  158.341   25.735         0.75
 109.446   35.689  305.588         0.75
 193.561   44.217  346.216         0.75
 168.495   84.166  294.567         0.75
 355.491  131.308   34.930         0.75
 127.062  125.151  294.937         0.75
 192.914   41.932   44.826         0.75
 168.153   83.246  293.499         0.75
  68.456   23.269  103.761         0.75
 131.670   91.015   21.339         0.75
 192.884   95.240  284.196         0.75
   6.386  159.040  176.401         0.75
  13.743  102.004  270.337         0.75
  41.388   34.301   22.850         0.75
  87.831  160.223  250.792         0.75
 193.948   92.479  102.891         0.75
 193.553   92.390  102.726         0.75
  10.432   81.365  262.377         0.75
 302.344   87.628  178.084         0.75
 212.475   90.093    6.208         0.75
 162.363   85.526   85.754         0.75
 318.999   63.997  272.648         0.75
 182.641   35.092  180.794         0.75
   6.888  128.333   73.253         0.75
   0.897  126.778  306.839         0.75
 346.594  140.472  224.169         0.75
 248.517  118.670  197.719         0.75
 154.899  138.129  303.584         0.75
 204.274   84.022   34.481         0.75
 213.798  106.470  123.482         0.75
 237.843   36.151  328.390         0.75
 175.695   72.462    0.991         0.75
 262.977  128.825  332.852         0.75
 115.010   25.035  303.167         0.75
  79.835  112.547  234.432         0.75
 155.789   87.648  350.607         0.75
  66.356   84.664  279.676         0.75
  66.144   86.625  278.973         0.75
 123.982   17.033  341.263         0.75
 337.074  144.448   19.545         0.75
 262.964   86.660   19.302         0.75
 337.148  144.182   26.144         0.75
   4.448  153.627  176.577         0.75
   1.190   97.026  284.869         0.75
 190.466   29.831  355.093         0.75
 257.265   42.263   35.527         0.75
   7.859  150.753  179.730         0.75
  62.694   32.374   70.088         0.75
   7.200  152.929  178.980         0.75
  10.558  154.391  180.348         0.75
 169.001   95.633   43.056         0.75
 352.967  131.797  120.026         0.75
 355.726  111.718  304.143         0.75
 321.809  102.763  223.285         0.75
 298.523  167.868   62.631         0.75
 230.089  113.023   33.097         0.75
 346.688   76.571  213.606         0.75
 174.774   66.643  294.941         0.75
 224.396  167.078  287.593         0.75
 358.935  145.170  190.240         0.75
 274.943   66.626    5.032         0.75
 277.904   25.804  330.748         0.75
 137.259   17.861  290.475         0.75
 284.382   37.382  269.817         0.75
 245.468  158.645   16.770         0.75
 198.170  114.142   53.379         0.75
 345.863  144.015  177.082         0.75
 332.317  144.602   17.276         0.75
 226.091  101.791  108.363         0.75
 229.078   33.322   22.572         0.75
  12.176   24.389  307.389         0.75
  48.717   33.005  324.052         0.75
  62.541  136.784   75.678         0.75
 175.871   27.828   15.399         0.75
  61.617   58.054  294.755         0.75
 146.632   32.219   67.421         0.75
 170.532   37.814  358.678         0.75
 197.146   25.395  348.047         0.75
  18.368  153.395  253.716         0.75
   4.412  153.860  122.699         0.75
  75.898  133.976  261.986         0.75
 165.282   54.451  253.206         0.75
 295.289  153.670  240.024         0.75
  41.434  104.002  248.567         0.75
 348.040  145.718  166.728         0.75
  26.290  157.586  238.116         0.75
 183.133   64.259   55.436         0.75
 167.112  127.173  198.521         0.75
   3.481  115.256  245.073         0.75
 299.224  153.826    3.017         0.75
   1.990  144.532   28.263         0.75
 211.998  118.836    3.730         0.75
 231.556   78.509  303.698         0.75
 312.685   70.096  246.561         0.75
  16.742  123.539  269.365         0.75
   0.975  139.990   36.631         0.75
 168.962   36.817  253.248         0.75
 346.749  142.345   55.836         0.75
 211.509  119.707  321.449         0.75
 210.021  123.654  324.288         0.75
 350.981  136.183  200.944         0.75
 172.914   58.868  223.380         0.75
 194.181   42.412   42.856         0.75
 274.873   76.886  199.719         0.75
  93.720  140.734  218.237         0.75
 104.718   57.036  105.300         0.75
 340.385    2.422   71.780         0.75
 183.673   26.046    5.290         0.75
 356.093   88.441  100.579         0.75
 348.444   95.978  303.691         0.75
 162.073   81.553  202.188         0.75
 332.632  141.421  290.532         0.75
 203.566  147.130  310.077         0.74
 279.266  124.946   27.142         0.74
 145.483   45.831  122.094         0.73
 304.078  160.386    3.469         0.73
 178.617  123.785  332.634         0.72
 107.836  155.930  288.960         0.72
  38.011  112.673  131.504         0.72
 240.501   85.099  190.565         0.72
 307.665   48.417  286.979         0.72
 109.686   92.820  135.079         0.72
 110.534  131.357  312.818         0.72
  52.380   27.095   96.228         0.71
 292.499   76.397  334.687         0.71
  39.071   58.806  273.674         0.71
 136.729  122.472   46.367         0.71
 355.387   49.645   98.156         0.70
 104.017   84.641  277.593         0.70
 233.676  137.729   38.321         0.70
 223.781  133.537  115.191         0.70
 282.116   68.193   37.331         0.69
 193.401  137.492  329.950         0.69
 119.289  108.540   79.636         0.69
 112.598   68.984   18.778         0.69
  16.064   71.587  330.640         0.69
 276.106  121.851   42.717         0.69
 229.835  120.596  130.900         0.69
 273.298  113.792   35.557         0.69
 313.935   53.211  266.485         0.68
  20.972   36.715  287.848         0.68
  69.046   44.956   82.333         0.67
 127.566   41.475   80.504         0.67
 306.952   61.715  331.427         0.67
 306.223   50.856  271.454         0.67
 127.765  173.276  173.128         0.67
 173.776  124.033   66.587         0.67
 148.871  112.359   35.221         0.66
  87.398   63.526  321.270         0.66
 249.466   69.280   60.866         0.66
  28.471  150.738   55.698         0.66
 341.163   62.209  163.135         0.66
 279.126   40.663  205.108         0.66
  77.091   75.707  199.324         0.66
 235.283  129.502  277.525         0.66
 217.204  136.329   12.446         0.66
 253.781   60.351  330.502         0.66
 280.897   77.911  350.672         0.65
 260.863   41.983   19.506         0.65
  52.907   51.222  179.867         0.65
 143.937  146.944   60.178         0.65
 156.200  144.050   60.179         0.65
  29.168   66.392  248.795         0.65
 220.013  144.255  347.816         0.64
 112.109  101.765  299.567         0.63
 273.568   46.654  357.562         0.63
 228.074  118.647  179.455         0.63
 110.200   52.908   10.312         0.63
 164.133  150.046  281.709         0.63
 212.018   24.793  342.157         0.63
 192.600   87.817   93.770         0.63
   6.266   44.469  117.669         0.63
 307.411   81.331  338.336         0.63
 152.658  129.303  359.442         0.63
  94.128  166.032  285.037         0.63
 334.625   67.644  319.525         0.63
  79.179  136.250  217.654         0.63
 289.036   65.481  277.122         0.62
  74.037  106.207  320.665         0.61
  84.958  101.881  258.073         0.61
 211.082  123.420  195.341         0.61
 343.135   58.455  279.104         0.61
  15.854   60.468  145.739         0.61
  95.892  176.677  325.197         0.61
 210.784  163.342  101.413         0.60
 265.940  102.629  279.724         0.60
 240.855   72.911  342.339         0.60
 296.849   96.945  203.952         0.60
 348.260   49.353  280.592         0.60
 230.437  102.420  199.111         0.59
 132.646  144.984  215.548         0.59
 275.313   80.095  341.926         0.59
 243.268  100.968  217.957         0.59
   4.362   39.265  149.833         0.59
 340.681   73.884  170.549         0.59
  96.767   81.908   74.515         0.59
   2.181   67.125  354.283         0.59
  92.976  116.139   93.229         0.59
  34.907  127.806  244.820         0.59
 296.641   54.523  198.948         0.59
 174.751   91.526   31.138         0.59
 225.506  132.100  209.930         0.59
 228.259  105.141   95.934         0.59
 310.808   68.232  295.736         0.59
 312.824   23.577  314.316         0.58
  62.886   70.033   62.066         0.58
 271.733  108.327  336.140         0.58
 245.989   71.416    1.445         0.57
  53.479   95.133  289.429         0.57
 143.037   84.839   65.069         0.56
 250.104  123.957  342.678         0.56
 281.419  111.030   16.721         0.56
 356.790   38.415  114.815         0.56
 325.141   77.143  256.322         0.56
 355.605  111.406  305.887         0.56
 148.565  139.527    7.185         0.56
 266.996  132.443  225.414         0.56
 330.439   20.697  165.066         0.56
 304.082   87.797  173.392         0.56
  20.139   70.317  295.287         0.56
   8.312  117.645  208.577         0.55
  75.560   67.063   49.530         0.55
 243.311   85.410   37.471         0.55
 300.313    7.657   96.437         0.55
 174.127   59.801  307.360         0.55
  74.681   73.113  122.938         0.54
 269.137  145.331    8.734         0.54
  33.117   49.810  303.895         0.54
 131.694  145.964  248.567         0.54
 108.353  114.983  261.118         0.54
 196.877  117.092  300.850         0.54
  43.098   45.110  275.211         0.53
  81.082   62.935  248.807         0.53
  16.258   82.897  277.179         0.53
  34.129   67.064  274.350         0.53
 343.911   62.248  275.911         0.53
 210.094  164.570   90.285         0.53
 120.021   18.759   64.526         0.52
 209.800  119.871  288.009         0.52
 312.717   72.741  326.806         0.52
  20.267   61.209  338.049         0.51
 273.376   76.642  344.784         0.51
   0.757   37.820  358.024         0.50
 103.045  151.022  332.129         0.50
 149.417   26.125   33.389         0.50
  63.611   64.735  142.845         0.50
 328.687  148.613    9.589         0.50
 185.170   90.095   73.134         0.50
 327.942  147.704  354.932         0.50
 152.291   27.421   30.993         0.50
 188.065   88.923  102.311         0.50
  66.611   53.103   86.109         0.50
 247.120  157.055  292.815         0.50
  68.902   23.183    4.757         0.50
 358.975   80.785  320.929         0.50
 168.120   83.013  292.420         0.50
 192.237   41.221   45.289         0.50
 193.837   42.597  343.738         0.50
 195.238   42.175  223.571         0.50
 166.227  134.901  282.002         0.50
 348.342   95.340  303.004         0.50
   3.161   74.776  217.524         0.50
 171.828   94.300   88.594         0.50
 158.887   82.832  204.346         0.50
 161.063   82.350  202.747         0.50
 167.491   90.050  226.635         0.50
   8.523  105.187   70.023         0.50
 192.254  136.830  309.366         0.50
  92.579   92.388  265.185         0.50
 258.443  111.843  356.954         0.50
  79.849  153.557    7.295         0.50
 275.286  155.554  224.091         0.50
 189.351   84.961  341.922         0.50
 199.963  142.883  345.017         0.50
  13.985  141.571  136.984         0.50
 256.092  153.201  327.310         0.50
  84.823  162.146  236.543         0.50
 193.761   92.056   43.216         0.50
 268.045   94.514  358.820         0.50
  11.014   57.335  157.470         0.50
 197.863   28.300  255.790         0.50
 287.035   26.908  311.069         0.50
  98.553   84.460  167.814         0.50
 355.343  121.960  274.039         0.50
 194.229  107.487  313.583         0.50
   2.489  145.055   59.238         0.50
 105.868   32.877   60.671         0.50
 278.962   36.229  209.079         0.50
 181.794   53.885  352.819         0.50
   7.636  137.234  279.370         0.50
 259.839   30.914  210.840         0.50
  67.459   61.817  102.631         0.50
 110.006  124.600  259.591         0.50
  36.927   66.688  270.074         0.50
 180.513   91.349  279.804         0.50
 277.587   20.631  203.346         0.50
 167.500   73.390  357.729         0.50
 184.788   90.112   78.181         0.50
  61.033  142.470  273.827         0.50
 348.607  153.056  264.424         0.50
 234.074   32.627    4.254         0.50
 179.732   62.390  183.706         0.50
 184.999   81.074  232.872         0.50
 245.069   70.895  124.510         0.50
  11.309  122.760   32.111         0.50
 133.187   20.665  285.564         0.50
 310.849  160.542  159.504         0.50
 130.408   18.691  137.320         0.50
 358.337  123.025  152.562         0.50
 146.455  112.118   98.363         0.50
 191.862   77.712  294.565         0.50
 333.510  144.591   21.708         0.50
 258.480   47.711  280.503         0.50
   9.989  149.866  184.136         0.50
   9.840  154.101  181.515         0.50
 341.384  145.680   21.883         0.50
 154.765  119.394  250.781         0.50
   8.106  153.349  179.469         0.50
 167.449   82.644  323.668         0.50
  11.249   97.459  127.286         0.50
 185.281   29.663    2.951         0.50
 186.473   28.771    2.882         0.50
 118.004   25.448   17.518         0.50
 169.192   89.604   81.674         0.50
 349.069   90.014  275.782         0.50
  59.360  148.002  190.156         0.50
 168.690   46.589  296.955         0.50
   4.452  149.274  234.179         0.50
 192.430   24.538  356.218         0.50
 260.948  159.045  358.962         0.50
  81.179   20.632    0.464         0.50
  20.848   97.072  281.290         0.50
 249.960  161.629  347.689         0.50
 190.491  100.151  332.650         0.50
 295.949   30.664  198.334         0.50
 337.836   75.127  258.098         0.50
 177.042   34.157  354.862         0.50
 263.983   87.488  346.139         0.50
 275.370  136.453  334.992         0.50
 184.223   31.030   11.759         0.50
   5.814  148.192  228.175         0.50
  47.121  159.163  245.092         0.50
  71.298   15.299  278.795         0.50
  21.050   35.870  124.397         0.50
  61.546   70.946   83.418         0.50
  96.985  129.383   17.863         0.50
 192.859   86.023  319.460         0.50
 185.662  107.792  333.028         0.50
 263.722  142.500  351.395         0.50
 345.093  143.918  176.008         0.50
 167.353   36.913  240.329         0.50
  26.798   37.536  338.030         0.50
 304.627   31.111  181.349         0.50
 204.890  133.477   75.963         0.50
 331.293  140.896  286.531         0.50
 179.889   99.102   85.125         0.50
   2.205  175.806   76.964         0.50
 194.724    8.431  298.905         0.50
 185.686  101.195   84.272         0.50
 169.635   88.972  292.524         0.50
 178.636   84.833  304.750         0.50
 190.579   77.761   84.675         0.50
 166.599   61.574   59.793         0.50
 146.241   32.171  308.088         0.50
   8.928  147.965   22.809         0.50
  49.777   95.547  290.908         0.50
  57.098  119.342  329.346         0.50
 262.741  158.032  248.651         0.50
 183.670   48.615  325.970         0.50
 271.520  136.296  277.379         0.50
 130.954  111.113  317.045         0.50
   3.597   81.744  310.733         0.50
 230.077   94.208   48.807         0.50
 242.347    9.537  253.663         0.50
 212.172   42.684  309.482         0.50
 141.723  156.342   21.118         0.50
 212.737   43.076  309.905         0.50
  27.572  157.559  238.928         0.50
  62.515   82.715  282.056         0.50
 180.257   83.828  285.988         0.50
   1.525  118.210  243.624         0.50
 337.799  146.589   10.110         0.50
 337.566  146.509   12.346         0.50
   5.075  149.729   30.827         0.50
 164.180   38.521  313.555         0.50
   2.165  134.506   59.272         0.50
 188.827   97.544   87.152         0.50
  57.496   85.111  276.604         0.50
 188.495   97.662   86.802         0.50
  57.405   84.633  274.524         0.50
   0.154  132.602    3.266         0.50
 354.799  138.867   51.199         0.50
 357.101  138.361   53.050         0.50
 335.310  145.048   16.597         0.50
 177.271   95.302   92.086         0.50
 334.706  145.621   15.681         0.50
 357.891   85.302  329.978         0.50
 278.415   32.815  200.444         0.50
  23.711  144.468  155.764         0.50
 131.966   32.893  263.645         0.50
 135.012   33.014  261.048         0.50
 312.581  145.795   36.541         0.50
   2.309  139.794   37.588         0.50
 329.620  143.560   12.830         0.50
 318.660  142.462    5.051         0.50
   4.626  136.655   40.358         0.50
  80.107   35.552  109.393         0.50
 325.189  124.736    3.284         0.50
 252.538   69.301  352.147         0.50
 135.513  147.491  262.418         0.50
   4.820   89.868  226.714         0.50
  85.772   95.974  257.213         0.50
 190.331   24.411  357.737         0.50
 186.723   24.564  359.343         0.50
 174.683   48.826   17.656         0.50
 111.408   94.380   72.072         0.49
 270.955   51.238    9.174         0.49
 263.312   65.309  230.802         0.49
 199.598  119.991  221.593         0.49
  19.724   43.620  302.317         0.48
 358.524  127.574  261.352         0.48
 198.453   96.675  274.841         0.48
 295.415   46.327  212.713         0.48
  75.341   94.008  145.511         0.48
  46.047  151.492   80.214         0.48
 336.260   23.695  331.768         0.48
 218.364   52.384  293.982         0.47
 134.823   49.740  192.868         0.47
 298.120   63.775  198.206         0.47
 318.866   45.861  326.237         0.47
 123.657  126.991  328.155         0.45
   8.580   36.387  286.023         0.45
 138.417  150.503  288.423         0.44
 118.929  102.031  234.232         0.44
  65.850   75.030   83.118         0.44
  49.891   41.792   81.980         0.44
  86.861   99.305  136.506         0.44
  51.783   58.906  150.595         0.44
 173.658  118.508  305.406         0.44
 112.702   33.593  353.350         0.44
 344.351   60.688  342.035         0.44
 150.032  111.240  229.673         0.44
  10.198   95.670  181.429         0.44
  36.025   68.639  291.103         0.44
 206.588  116.730  173.584         0.44
  29.365  153.652   48.075         0.44
 283.645  122.546  330.216         0.44
 356.912   41.107   51.604         0.44
 125.940  103.559   31.968         0.44
 346.412   56.435   14.167         0.44
 327.566   61.407  289.636         0.44
 302.584  132.594  357.822         0.44
   9.478   39.409   84.450         0.44
 160.598  124.537  287.805         0.44
 241.990  132.250   32.971         0.44
  95.330   78.360   15.153         0.44
   9.522   15.203  260.431         0.44
  29.972   41.410  338.514         0.44
 294.878   70.160  215.441         0.44
 182.448  148.150  240.750         0.44
 232.821  157.378  351.087         0.42
 175.724   60.838  319.427         0.42
 348.867   47.124  195.139         0.41
 171.562  135.043  296.860         0.41
 308.822   30.530  310.220         0.41
 220.467  162.679  328.095         0.41
 249.735  121.922   65.627         0.41
  51.609   52.485  295.896         0.38
 103.443  108.325   80.100         0.38
  37.784    4.469  219.727         0.38
 298.258   62.230  214.575         0.38
  57.682   90.961  274.329         0.38
 125.094  127.683  330.759         0.38
 105.453   98.155  199.222         0.38
  22.176   17.118  188.507         0.38
  36.714   57.455  289.313         0.38
  50.234   45.164   26.970         0.38
   7.570   93.955   35.751         0.38
   2.546  133.389   38.130         0.38
  77.781   92.422  246.406         0.38
 116.841  136.814   38.630         0.38
 281.128  109.097   12.871         0.38
 192.242   68.750   17.684         0.38
 322.145   61.987  332.238         0.38
 174.409  129.189  292.467         0.38
 150.921  157.086  326.453         0.38
 254.516   72.990  348.447         0.38
  47.018   92.894  274.388         0.38
 111.361  119.664  263.788         0.38
 336.873   73.310  283.287         0.38
 149.264  121.134  315.930         0.38
 306.981   55.751  333.843         0.38
 353.989   40.705  300.174         0.38
 213.539  134.364  319.080         0.38
 340.304   27.455  125.321         0.38
 162.947  142.976  258.744         0.38
 308.657   86.774   27.523         0.38
  19.042  126.184   57.046         0.38
 326.350   67.820  340.288         0.38
 157.608  131.163  286.855         0.38
 164.729  106.581  289.543         0.38
  86.882  127.071   46.166         0.38
  27.183   71.691  269.427         0.38
 114.840  132.298   89.680         0.38
 190.095  140.790  345.820         0.37
 260.905   83.355  340.570         0.37
 256.199  113.635   43.979         0.37
  83.994  161.781  334.547         0.35
 281.259   29.732  329.696         0.35
 245.621  129.736  332.315         0.35
 145.246  119.083   72.090         0.35
 282.811   98.191  339.804         0.34
 183.243  168.756  359.955         0.34
  92.778  100.640   79.690         0.34
 125.356  127.046  295.439         0.34
 117.982   90.894  216.228         0.34
 309.301  110.519  251.240         0.34
 241.030  127.623  333.944         0.34
 317.411  102.460  338.034         0.34
   9.463   56.480  237.550         0.34
 336.864  116.596   33.902         0.34
 129.748  174.658  308.095         0.34
 190.712  155.031  301.976         0.34
 223.820  143.213  270.072         0.34
 157.628  130.888  310.205         0.34
 234.697  130.634  357.885         0.34
 114.072  124.516  264.240         0.34
 323.249   21.864  344.504         0.34
 168.200   98.322  312.916         0.34
 186.281  153.819  211.537         0.34
 308.322   74.951  214.435         0.34
  49.039   34.044  310.432         0.31
 176.426  135.872  325.885         0.31
 351.878  131.491  119.424         0.31
 322.278   39.711  165.854         0.31
  18.303   95.207  281.736         0.31
 310.147   35.631  178.371         0.31
  36.297    7.863  359.337         0.31
 334.135  129.584  329.127         0.31
 357.616   82.268  326.622         0.31
  56.197   74.564   86.755         0.31
  50.071   41.681   19.429         0.31
 282.282   94.024  339.246         0.31
 177.612   92.373  328.869         0.31
 224.661   60.594   52.826         0.31
 323.337   49.272  281.686         0.31
 125.342  109.960   76.489         0.31
  45.606  156.647   95.258         0.31
 127.987   96.109  272.370         0.31
 171.338   45.746    8.715         0.31
 177.225  136.140  333.079         0.31
 313.584   92.089  195.052         0.31
 260.615  111.834  281.090         0.31
 277.332   29.471  321.235         0.31
 312.905   79.451    2.481         0.31
 205.339   95.681  341.449         0.31
  80.439   82.847  286.528         0.31
 114.121   42.825  249.049         0.31
   1.168  141.241  187.259         0.31
 207.117  158.535   94.261         0.31
 147.315  174.010  241.356         0.31
 176.990   57.067  342.175         0.31
   0.604   96.219  271.738         0.25
  50.533   75.164   70.951         0.25
 331.417  152.783  328.365         0.25
 356.216  104.688  271.231         0.25
 179.581   95.403  314.620         0.25
 166.948   83.920  293.629         0.25
 278.463   29.859  191.887         0.25
 291.049  143.537  355.925         0.25
 288.442  144.131  353.943         0.25
 187.157  160.197  245.859         0.25
   0.594   80.859  289.551         0.25
 351.006   89.056  279.928         0.25
 254.564  159.508   23.454         0.25
  52.756  156.399  353.503         0.25
 177.874  100.005   40.482         0.25
 213.378  154.320  338.711         0.25
 179.708  112.107  299.566         0.25
 359.454   82.503  287.934         0.25
 140.386  166.303  273.255         0.25
 246.938  142.794  318.065         0.25
 224.929  112.688  113.939         0.25
 246.249  159.054   17.052         0.25
 168.018   82.884  291.158         0.25
 177.575   79.590  329.690         0.25
 348.403   96.075  302.742         0.25
 178.592   79.315   90.485         0.25
  98.092  150.414  343.318         0.25
 346.704   98.310  305.514         0.25
 307.787   13.218  160.019         0.25
 239.682   25.565  236.706         0.25
  27.391   36.284    0.160         0.25
 158.528   82.725  204.084         0.25
 195.168   69.803   30.320         0.25
 350.199  135.798  200.711         0.25
 350.182   89.982  198.499         0.25
  70.223  167.344  297.656         0.25
 161.636   81.972  202.554         0.25
 191.786  137.947  302.813         0.25
 341.950  101.398  247.882         0.25
 188.242   75.215  289.625         0.25
 277.580  154.633  347.210         0.25
  93.656   24.937  317.308         0.25
 232.377   36.173  321.416         0.25
   0.060  103.912    2.855         0.25
 351.280   86.281  271.969         0.25
 349.307   88.144  212.216         0.25
  13.088   85.275  315.566         0.25
  86.205   39.332  327.957         0.25
  85.763   41.753  326.816         0.25
  91.012  161.805  200.475         0.25
 352.955  141.212   30.868         0.25
 350.740   88.544  215.938         0.25
  94.971   23.674  317.085         0.25
  13.690  101.789  269.907         0.25
  14.143  102.460  270.674         0.25
 278.401   18.927  197.323         0.25
 352.071  137.954   60.151         0.25
 347.655  138.105  329.023         0.25
 168.042   41.842   89.765         0.25
  86.245  158.993  308.355         0.25
 176.017   78.980   53.712         0.25
  38.966  156.757  143.640         0.25
 265.365   17.823    2.837         0.25
  36.615  152.353  140.048         0.25
 110.167   22.096   88.870         0.25
 311.421    9.757  284.359         0.25
  19.166  158.529  195.361         0.25
 198.889   22.169   44.879         0.25
  37.162  157.340  140.913         0.25
 188.549  100.878  337.083         0.25
  15.727   90.962  277.864         0.25
 109.320  142.772  331.808         0.25
   1.546  105.643  249.526         0.25
 177.583  100.927   28.648         0.25
 359.567  104.717  293.388         0.25
   1.046  104.712  294.067         0.25
   2.052   78.452  273.346         0.25
 347.622   75.948  228.931         0.25
 213.026   90.468  306.147         0.25
 273.184   20.383  340.367         0.25
 181.104   84.198   27.307         0.25
 341.712   94.223  273.919         0.25
 238.476   38.986  229.179         0.25
 178.581  131.376  318.771         0.25
 347.140  149.328  168.844         0.25
   1.727   95.500  273.068         0.25
 347.395  149.198  169.624         0.25
  97.753  112.093  193.036         0.25
   1.075   96.913   91.801         0.25
 263.712  153.867  318.575         0.25
 102.261  139.107  332.082         0.25
 265.220  152.462  321.864         0.25
 151.602   82.448  296.699         0.25
 118.203  153.256  296.275         0.25
   6.078  137.140  196.461         0.25
  98.904  143.981   90.472         0.25
 112.529  162.222  345.448         0.25
   7.248  136.971  100.283         0.25
 182.055   90.623  279.734         0.25
 186.916   91.854  261.995         0.25
 106.180  106.313   96.336         0.25
 250.138  151.115  326.089         0.25
 340.609   59.072  290.351         0.25
 187.096   90.409  319.752         0.25
 356.502   78.041  225.157         0.25
 283.206   60.296  311.117         0.25
 278.627   21.385  202.177         0.25
  33.183   74.203  296.374         0.25
  82.033  112.055  259.532         0.25
 352.832   40.825  279.666         0.25
 237.378   36.086  328.885         0.25
 112.963  157.950  175.835         0.25
 172.216  106.695  269.155         0.25
  53.003  147.222  236.111         0.25
 267.792  140.577  336.610         0.25
 334.121  124.548  280.697         0.25
  15.575   24.042   52.413         0.25
  88.015   39.751   21.655         0.25
  88.307   39.887  262.847         0.25
 333.934  125.193  281.812         0.25
 229.367   30.110  127.746         0.25
 176.383   98.908  338.297         0.25
  87.696   40.239  263.645         0.25
 315.516   31.962  255.645         0.25
  99.563   31.058  317.728         0.25
 313.805   36.452  316.624         0.25
 253.431   74.429  358.262         0.25
 182.179  103.937   83.374         0.25
 178.226  101.592  317.973         0.25
 249.748   99.463  347.772         0.25
 110.748  161.695  188.137         0.25
 351.632  100.874  150.074         0.25
   1.938   81.810  216.368         0.25
  11.480   79.253  304.187         0.25
 127.231   20.477   21.592         0.25
 307.371  159.995   98.693         0.25
 178.629   10.703  323.808         0.25
 191.338  100.239  294.242         0.25
   0.111   82.022  278.508         0.25
 179.496   93.989  327.530         0.25
 130.761   18.773   17.548         0.25
 132.586   18.468   15.574         0.25
 178.702   94.139  324.309         0.25
 358.014  120.606  331.581         0.25
 133.371   18.218   14.402         0.25
  13.841   52.337  348.063         0.25
 175.687  104.168  315.310         0.25
 167.338   78.649  102.665         0.25
 302.888   27.254  286.190         0.25
 349.504  102.344  138.331         0.25
 334.515  144.062   21.510         0.25
 327.768  156.284   32.103         0.25
 165.161   37.022  304.800         0.25
  85.362   90.377  284.332         0.25
 297.217  163.527    2.904         0.25
 359.003  140.006   35.949         0.25
 191.927   47.290   28.779         0.25
 191.818   77.566  294.660         0.25
 131.522   21.435  282.834         0.25
 120.298  150.115   12.236         0.25
 330.588  145.832   21.819         0.25
 315.014  150.708  294.547         0.25
 257.881   48.186  100.694         0.25
 299.263  162.458    5.532         0.25
   0.527  138.863   42.000         0.25
   6.806  139.265   46.732         0.25
 325.016   88.357  351.996         0.25
 179.592  143.443  252.766         0.25
 357.768  143.108   40.995         0.25
 170.491  103.036   70.207         0.25
  66.141   13.988  333.645         0.25
  10.951  153.822  182.440         0.25
 210.517   25.052  283.313         0.25
 116.142  144.744  237.402         0.25
 190.458   25.778  358.638         0.25
 299.943  154.466   46.567         0.25
 202.901   27.072  262.849         0.25
  16.303   79.527  275.146         0.25
 183.905   77.754   88.136         0.25
 322.424  122.442   21.125         0.25
   9.554  149.848  183.964         0.25
   0.180  142.657   35.607         0.25
 322.810  122.800   21.140         0.25
   9.450  149.489  183.670         0.25
  10.164  154.055  181.459         0.25
   6.402  151.617  113.605         0.25
  10.708  151.203   55.582         0.25
   9.492  153.906  180.497         0.25
  10.548   97.259  128.395         0.25
  12.600   31.637   95.904         0.25
 294.424  155.226   42.739         0.25
 342.869   33.171   27.547         0.25
   6.214  153.224  177.546         0.25
 353.209   76.859  233.733         0.25
 112.105   13.918  301.891         0.25
   6.054  150.234  238.034         0.25
 187.281   28.394    2.394         0.25
 198.970   99.033   69.822         0.25
 173.778   94.157   43.858         0.25
 162.912   69.447  347.302         0.25
 163.714   67.763  317.172         0.25
 162.539   69.522  347.085         0.25
 163.259   70.961  346.922         0.25
 159.475   31.458  307.389         0.25
  22.526   26.380   89.147         0.25
  99.224   28.848   66.114         0.25
 167.733   97.901   87.233         0.25
 183.412   93.258   76.319         0.25
 182.875   87.335   83.794         0.25
   4.406   93.614  277.673         0.25
   5.834   94.114  337.118         0.25
 185.349   71.766   49.819         0.25
  73.826   89.931  259.776         0.25
 172.112  132.043  332.460         0.25
 188.716   25.884    2.028         0.25
 170.563   93.532   97.159         0.25
 184.659   28.272   95.629         0.25
 193.011  106.644  273.210         0.25
 251.402  161.301  105.914         0.25
  71.632   19.664   72.704         0.25
 172.052  166.381  234.322         0.25
  70.296   19.054   13.703         0.25
 260.891   38.832  342.039         0.25
  72.381   20.916   71.041         0.25
 189.218   25.266  358.936         0.25
 189.476   25.160  358.920         0.25
   9.857   82.749  266.483         0.25
 346.998   84.162  262.529         0.25
 191.030  129.777  192.224         0.25
 347.000   82.064  328.272         0.25
 343.732   81.194  261.635         0.25
 126.356   87.129  106.120         0.25
 167.935   78.551   71.656         0.25
  21.862  153.003  310.842         0.25
 349.756   81.829  328.353         0.25
  11.432   31.762  250.156         0.25
 350.163   82.691  328.294         0.25
 245.807   22.996  309.439         0.25
 173.823  164.429  171.473         0.25
  72.620  149.910   80.458         0.25
 297.912   30.949  196.846         0.25
 344.829   76.416  265.386         0.25
  30.942  108.662  272.970         0.25
 354.291  113.603  245.844         0.25
 188.462  106.181  336.894         0.25
 211.112  100.827  331.468         0.25
 177.153   34.301  354.446         0.25
 357.173  146.099   65.955         0.25
  66.042  156.152   53.261         0.25
 204.448  141.308  190.478         0.25
  61.725   70.829  289.518         0.25
  86.761  111.451  247.883         0.25
 266.956   69.324  352.383         0.25
 108.467   86.499  263.621         0.25
  66.662   13.739  129.181         0.25
 121.748  150.143  347.576         0.25
 228.538   24.306   20.358         0.25
  31.738   35.947  318.564         0.25
  12.291   94.278  267.363         0.25
  34.961   34.242  315.187         0.25
  92.003   68.996  248.644         0.25
 126.375  117.080  257.366         0.25
  20.039   35.363  120.516         0.25
 184.186   31.248  192.937         0.25
 138.942   57.803   99.672         0.25
 340.079   77.174  318.032         0.25
  14.734  148.885  324.100         0.25
  66.776  159.853  293.700         0.25
  12.765  154.434  335.030         0.25
 175.915   51.648  315.702         0.25
 254.760  163.107   69.769         0.25
 237.852  157.889  349.388         0.25
 266.719   40.513  325.193         0.25
 261.940  143.126  327.953         0.25
  82.847  166.758  188.541         0.25
 338.531  144.673   20.630         0.25
 331.210  145.159   14.101         0.25
 346.263  144.139  176.617         0.25
 275.961   31.070  321.190         0.25
 166.948   35.893    1.331         0.25
 340.624  147.254   25.734         0.25
 347.276  143.826  179.904         0.25
   2.025  140.703   41.685         0.25
 337.773  144.584   19.986         0.25
  27.740   30.145    3.170         0.25
 169.000   36.690   58.586         0.25
 337.241  144.406   25.782         0.25
 357.375  144.008   39.906         0.25
 224.780  144.450  340.973         0.25
 342.038  143.384   30.306         0.25
 151.134   39.050   73.318         0.25
 328.860  141.505  346.027         0.25
 229.582   32.178   22.846         0.25
 329.582  142.646  286.674         0.25
 176.220   77.713  280.916         0.25
 102.672  161.297  345.244         0.25
 280.558   17.940  196.500         0.25
 209.713  131.996  323.548         0.25
  79.605   35.217  342.642         0.25
   4.036  169.863  108.191         0.25
 352.711  121.824  302.859         0.25
 248.780   42.949  327.862         0.25
   5.004  146.596   19.176         0.25
  92.319   97.008  281.933         0.25
  91.928   96.274  101.670         0.25
  75.115   56.937  276.958         0.25
  81.805  174.440  150.607         0.25
 355.359   98.995  248.684         0.25
 351.368   97.554  139.645         0.25
  74.665   21.124  359.655         0.25
 306.836  148.754  287.144         0.25
 342.723  133.988  279.105         0.25
 342.560  135.379   13.248         0.25
 226.769   24.725  115.855         0.25
 342.457  134.915  278.658         0.25
 343.150  135.331  279.952         0.25
 341.252  138.738   12.510         0.25
 195.265  119.292   16.278         0.25
  85.791  136.058  236.789         0.25
 284.496   36.656  204.216         0.25
 346.301  144.589  294.212         0.25
 346.806  145.968  356.363         0.25
 215.500  136.731  325.770         0.25
 186.346  134.529  255.329         0.25
   2.617   80.620  312.187         0.25
 181.220  133.669    6.396         0.25
 181.220  133.669    6.396         0.25
 142.589   81.602   97.509         0.25
  68.156  160.976  187.984         0.25
  85.521   46.849   55.791         0.25
   9.272  155.122  247.830         0.25
 100.609  144.183  336.692         0.25
  69.137  116.545  281.618         0.25
 201.568   50.824  113.050         0.25
 341.252   25.106   46.205         0.25
 210.266   42.096  311.456         0.25
  68.346  122.473  238.331         0.25
 171.380   95.138  324.676         0.25
  52.194   78.171  265.846         0.25
 306.539   23.671  184.636         0.25
  25.165  156.023   87.532         0.25
 206.670   22.023    1.371         0.25
  66.130   80.988  284.348         0.25
 121.881  166.561  348.975         0.25
  65.297   82.276  283.891         0.25
 347.400  141.147  297.061         0.25
 180.399   61.486  357.032         0.25
 334.911  154.172   65.585         0.25
 334.567  138.664   42.472         0.25
 182.698   84.410  279.054         0.25
 193.557  105.294  322.019         0.25
   0.266  146.346   48.781         0.25
 338.025  149.700    9.895         0.25
 275.568   70.074  339.187         0.25
   0.920  136.374   59.078         0.25
 193.557  105.294  322.019         0.25
 353.119  140.062   51.633         0.25
   2.165  134.506   59.272         0.25
 327.528  142.926   34.318         0.25
 359.879  135.499   56.969         0.25
 176.844   90.938   85.851         0.25
 357.078  138.694   54.504         0.25
 335.453   31.455  315.732         0.25
   0.131  132.411  243.435         0.25
 331.029  144.595   34.252         0.25
 349.982   46.039    5.354         0.25
 355.885  122.033  351.939         0.25
  61.910  147.703  190.060         0.25
 358.690  133.833   60.076         0.25
   0.741  138.082   56.638         0.25
 359.271  137.937   53.735         0.25
 323.443  140.287   27.550         0.25
 239.477   96.527   22.427         0.25
 352.994  139.082   50.291         0.25
 198.286  150.095  325.822         0.25
  14.370  124.162  178.135         0.25
 330.295  153.465   23.854         0.25
 322.618  157.051   17.779         0.25
 355.534  138.726   51.260         0.25
 179.490   95.899   90.163         0.25
 256.985   41.065  339.129         0.25
 324.522  140.628   29.195         0.25
 339.599  159.408   30.390         0.25
 189.906  157.820  337.711         0.25
 315.193   36.215  165.126         0.25
 200.227  152.044  272.351         0.25
  38.151  159.754  255.406         0.25
 197.091  140.442  171.220         0.25
 212.545  139.765  193.884         0.25
  56.808   87.235  274.982         0.25
 336.402  146.037   16.401         0.25
 203.902  155.724  257.430         0.25
 331.914  139.677   33.245         0.25
 336.636  144.125   17.351         0.25
 209.871  142.444  192.350         0.25
 311.511   65.716  189.012         0.25
 313.796   36.103   47.212         0.25
 340.583  146.513   20.043         0.25
 314.462   35.882   46.183         0.25
 199.290  153.007  350.279         0.25
 314.545   36.098   45.607         0.25
 341.028  142.687   21.964         0.25
 206.588   35.654  290.916         0.25
 206.775  164.353  238.907         0.25
 341.212  143.990   23.017         0.25
 278.406   32.745  200.775         0.25
 278.305  155.195    4.190         0.25
 164.335   37.636  256.697         0.25
 132.151   33.472  263.579         0.25
 358.039  141.326   34.194         0.25
 353.506  141.987   31.251         0.25
 188.874   40.422  349.575         0.25
 167.896   37.377    4.119         0.25
 108.482  161.032  345.297         0.25
 169.295   36.844   62.357         0.25
 237.270   93.977  137.277         0.25
 105.492  157.215  343.784         0.25
 324.168  124.179    3.244         0.25
   5.362   91.772  255.844         0.25
  84.452   70.892   66.444         0.25
 280.706   37.624  194.458         0.25
 302.377  116.315  329.924         0.25
 350.244   87.805  273.565         0.25
 181.333   80.836   62.247         0.25
 177.222   63.427  354.864         0.25
