TEXTURE AT STRAIN = 0
1.0   1.0   1.0
DISCRETE TEXTURE FROM ODF FILE RD_800C_initial
B 1373
 358.517  145.235  313.934    121914.72
 193.656   29.821  202.112     76859.75
 186.353   89.113  208.193     70905.83
 347.021   26.439  239.441     69087.17
 322.895   25.595  288.763     59106.23
 356.575  137.630  117.114     58759.82
 359.390   34.238  249.562     58673.22
 355.825   31.502  247.073     53303.86
 182.000   33.057  223.214     52632.69
 179.544  148.868  296.719     52286.28
 173.123  153.286  158.896     50597.53
   1.537  149.192  165.417     49731.51
 216.541  151.414   27.039     49146.94
  47.757   30.399  198.147     48172.66
 178.805   73.134  204.728     47306.63
  12.144  120.567  126.505     47176.73
 187.735  145.349  164.309     47025.18
 186.605   85.761  150.918     45509.63
 184.384  148.184   21.047     45487.98
 188.038   93.661  231.001     44297.20
  35.986   30.273  196.123     43387.87
  24.263  147.099  177.713     41980.58
   2.993   68.152  191.387     41504.27
  20.262   24.588  214.495     41222.81
 178.981   32.466  196.275     40854.75
   1.631   24.558  211.213     40681.54
 188.668   32.888  234.444     39988.72
 163.352   36.237  247.481     39469.11
 169.494   99.819  208.577     38678.86
 351.738  149.984  321.729     38646.38
  21.331  143.698  192.707     37390.64
 194.061   24.054  239.401     37130.84
 198.833   40.260  227.121     36719.47
   4.776  147.820  245.271     36676.17
 167.557  144.100  346.070     35723.55
 337.400  150.326  299.688     35615.29
 166.276  144.981  278.387     34922.47
 332.969   33.974  252.704     34619.36
  22.927  142.810  304.983     34337.91
 359.898  145.178  155.126     33298.67
  13.819  141.112  308.088     33017.22
 323.583   26.012  265.138     32930.61
  10.790   39.077  216.205     32887.31
 351.327  142.578  153.303     31393.42
   1.491   96.571  194.641     31133.61
 150.505   37.296  258.743     30614.00
 166.795   42.644  253.014     30592.35
 170.627   93.414  147.613     30310.89
 184.658   92.488  262.260     29986.13
 350.517   39.977  235.775     29964.48
 170.020   82.348  224.963     29964.48
  12.151   32.856  217.797     29726.32
  16.761  145.147  192.309     29704.67
   1.814   88.199  270.321     29531.46
 173.413   90.715  189.217     29509.81
   1.909   30.431  239.051     29206.71
 345.622   32.166  239.099     28968.55
 190.924   87.006  205.850     28643.79
   6.838   95.878  271.510     28448.93
 172.064   97.853  142.924     28448.93
  18.012   33.913  232.304     28362.33
   0.865   50.275  220.052     27886.02
 351.918  148.112  156.088     27041.64
 345.035  159.613  273.750     26955.04
 186.156   43.543  235.258     26890.09
  19.180  145.463  171.011     26868.44
 174.747   96.458   83.322     26846.79
  38.108   33.859  139.013     26825.14
 153.254   31.316  212.233     26413.77
  40.646  144.244   15.620     26197.27
 338.203   32.299  264.288     25742.60
  37.203  157.369  197.220     25720.95
 354.223   88.013   88.668     25612.70
  17.362   29.790  232.382     25526.10
 173.817   35.432  247.500     25461.15
 178.359   84.701  206.781     25352.89
 190.704   34.756  212.467     25309.59
 157.050  144.545  134.342     25244.64
 154.687   36.267  257.275     25179.69
 355.849  145.992  184.452     24984.83
 342.346   28.952  237.752     24486.87
  19.953  145.895  181.658     24421.91
  13.430   34.790  203.081     24400.26
 161.366   32.501  259.716     24378.61
 167.003  152.122  136.820     24313.66
 209.065  145.010  308.944     24010.55
 359.902   91.528  197.316     23534.24
 169.133   32.386  266.013     23534.24
 330.650   33.755  256.723     23447.64
  11.777   90.187  207.577     23404.34
 170.792   88.389  211.460     23361.03
  11.111   30.274  231.373     23296.08
   0.946   87.781  105.938     23296.08
   7.267   86.235  149.177     23209.48
 183.466   36.514  249.793     23057.93
 206.262   37.636  194.851     23036.27
  26.296  141.334  172.556     23014.62
 329.815   40.757  274.855     22841.42
 164.923  143.367  344.191     22819.77
 347.686  154.562  151.986     22819.77
 202.822   42.178  175.004     22538.31
 196.097   33.270  199.358     22495.01
 208.073   32.728  183.158     22430.06
 336.622  151.509  135.570     22386.76
   9.173   93.301  203.724     22191.90
 169.167   43.460  238.741     21953.74
 342.977   39.282  263.301     21910.44
   5.914  139.780  175.603     21845.49
 198.105  134.633  315.748     21737.24
 359.711   98.956  205.090     21607.33
 176.673   80.893  209.423     21564.03
 153.548   38.078  250.790     21434.13
  55.956   20.177   26.744     21217.62
 109.739   33.205  298.884     21044.42
 179.744   94.509  202.024     21022.77
 178.737   94.635  218.004     20979.46
 156.177  151.012  283.006     20957.81
 171.117  117.927  155.729     20936.16
 174.586  147.003  346.223     20568.10
 167.897   31.130  253.553     20459.85
 335.723  159.100  253.927     20416.55
 170.746  157.326  309.677     20329.95
 357.087   79.989  179.432     20248.15
 159.270   29.132   77.797     20243.34
 357.707  144.493  293.751     20070.14
 172.059   37.641  231.724     19940.23
 179.449   87.927  210.875     19723.73
 176.303   87.658  213.216     19680.43
  14.351  102.962   94.193     19615.47
   0.563  137.224  166.456     19593.82
 161.435  147.471  101.376     19550.52
 346.187   35.282  242.779     19507.22
 154.501   29.889   67.701     19463.92
  18.312   27.400  229.410     19334.02
 174.233   95.040  251.254     19247.41
 182.619   79.540  204.304     19182.46
 182.722  103.532   86.083     19052.56
   2.721   40.022  226.164     19030.91
 168.062   32.522  254.814     19009.26
  18.275   40.196  196.904     18944.30
 193.399   23.343  207.175     18901.00
 183.527   74.225  252.643     18857.70
 359.408   40.592  227.963     18814.40
   0.770   39.300  220.108     18706.15
 166.566  138.304  288.020     18706.15
   2.011   30.810  249.994     18662.85
   0.101   62.560  216.310     18641.20
 349.709  134.880  269.414     18489.64
  31.774  149.067   10.380     18467.99
 182.317  101.735  150.944     18467.99
 354.384   41.497  250.773     18316.44
 356.451   29.891  265.673     18099.93
  12.597  144.629  189.095     18034.98
 170.659   80.890  219.235     17926.72
 171.620  156.845  160.388     17892.44
 162.496   30.035  246.223     17883.42
 349.669  148.964  285.496     17883.42
 163.487   40.073  249.522     17818.47
 342.764   50.127  199.229     17710.22
 179.503   74.679  199.649     17623.62
 318.577  148.739  118.883     17537.01
 342.946  151.399  119.745     17537.01
 178.651  139.146  356.032     17472.06
 284.689   36.153  322.069     17407.11
 184.274   93.560  146.743     17385.46
  19.973   32.623  217.264     17385.46
 354.574   30.363  213.717     17298.86
 353.734   88.795  255.135     17233.90
 335.856   31.464  242.641     17190.60
 351.026  130.978  177.418     17147.30
 337.290  147.190  275.656     17125.65
 179.881   44.777  243.275     16909.15
 180.831   28.095  238.130     16887.49
 176.262   87.465  211.329     16865.84
 334.461   37.420  226.070     16844.19
 177.858   93.549  179.981     16822.54
  44.555   29.938  198.199     16649.34
   0.754    9.400  232.890     16627.69
 353.936  144.206  170.624     16627.69
  10.804   36.963  116.568     16606.04
  10.111   43.883  213.492     16584.39
 356.810   98.201  201.335     16562.73
 340.591  148.056  268.007     16476.13
  38.582   36.106  196.221     16454.48
 190.893  150.426   15.958     16346.23
   2.713   35.555  221.271     16324.58
   8.461   93.620  212.981     16302.93
 201.967   33.413  206.657     16259.63
 172.509  138.642  298.955     16129.72
 209.519   37.542  172.360     16108.07
  18.077  151.641  300.281     16108.07
 349.393   34.469  263.235     16064.77
 339.200   32.516  252.203     16043.12
   5.249   99.487  225.252     15978.17
 176.388  148.213  356.922     15956.52
   8.448  117.494  179.836     15869.91
 179.633  144.337  355.016     15826.61
 354.376   34.149  246.189     15812.18
 354.311   84.405  183.967     15718.36
 344.948   38.783  259.012     15675.06
 164.367  157.837  140.621     15675.06
 203.446   40.454  221.090     15653.41
 186.036   40.058  223.226     15523.50
   4.675   83.017  203.915     15523.50
 346.976   88.270  145.960     15480.20
   7.616   40.984  237.373     15371.95
 346.113   26.431  262.445     15155.44
 180.192   79.141  196.322     15133.79
 340.885   15.765  273.938     15112.14
 170.495  137.080  349.177     15112.14
 175.472  142.932  280.682     15025.54
   6.944   23.767  225.908     15003.89
  22.305  153.243  154.649     14982.24
 181.677   51.173  236.669     14982.24
   8.640   90.483  265.624     14960.59
 192.807   28.762   39.835     14960.59
 212.086  147.708  327.519     14938.94
  18.034   33.905  178.679     14917.29
 189.837   94.264  227.002     14895.64
 355.770  145.131  179.680     14873.99
 171.324   19.225  237.700     14852.33
 183.318   23.293  242.038     14830.68
  33.400   38.097  217.820     14830.68
 351.091   84.542   98.715     14787.38
 180.708   85.961  212.035     14744.08
 224.107   97.577  326.210     14700.78
 176.692   90.547  206.680     14592.53
  12.215   73.582  215.288     14570.88
 126.867   26.017  295.024     14549.23
   0.378   32.407  241.445     14549.23
 357.261  102.425  217.984     14549.23
 175.798   37.665  220.022     14505.92
  22.341   29.746  217.221     14484.27
 175.506  131.708  346.625     14462.62
 323.867   33.121  269.463     14462.62
  24.810  151.036  208.738     14397.67
 350.495   26.942  235.787     14311.07
   4.295   98.786  271.966     14289.42
 194.530  148.364  171.053     14181.17
 358.990   70.590  200.758     14137.86
 169.579  145.670  348.138     14072.91
  42.009   41.783  200.594     14072.91
 356.410   81.268  202.204     14051.26
 353.822   68.048  245.218     14007.96
 325.106   32.768  275.022     14007.96
 304.222  150.818  102.607     13943.01
 355.124  148.286  175.042     13943.01
 333.468  141.326  329.559     13921.36
 188.383  148.929  291.550     13921.36
 194.088  154.336  314.674     13834.76
  15.904   26.714  208.340     13791.45
 188.294   26.703  227.571     13769.80
 155.224  155.228  113.896     13769.80
 190.140   34.175  205.176     13748.15
 179.262   76.634  209.627     13748.15
 353.240  143.305  158.253     13683.20
   1.268   40.235  227.865     13618.25
   9.211   29.183  233.529     13466.69
 171.393   84.729  265.282     13466.69
 349.114  156.671  107.024     13445.04
 344.890   46.489  253.840     13423.39
 177.163   32.078  251.075     13401.74
 192.585   29.178  210.662     13401.74
 171.942  147.326  287.470     13380.09
   6.334  136.657  180.602     13358.44
  15.162  150.227  189.915     13358.44
  12.205   39.917  238.047     13336.79
  21.113  148.986  305.463     13315.14
 196.236   46.495  207.129     13315.14
 309.787  146.025  116.126     13293.49
   1.674   89.792  227.844     13271.84
 198.295   90.303  262.107     13271.84
  12.038  152.321  201.891     13228.54
  10.852  136.508  150.875     13206.89
  21.098   39.705  193.282     13206.89
 167.726   51.348  236.989     13206.89
 332.643   32.142  239.530     13206.89
 319.798   21.021  284.534     13185.24
   5.329   39.680  234.103     13163.59
  12.968   30.115  233.934     13141.93
 176.290   90.978   76.321     13141.93
  17.721   38.001  205.176     13120.28
 181.414   80.991  199.752     13120.28
 340.911   33.404  221.483     13076.98
 358.223   39.382  229.744     13055.33
 198.505  151.254  181.036     13055.33
 252.341   26.086    3.811     13033.68
  69.308   41.561   14.243     13033.68
 210.911   19.812  186.163     12968.73
  11.379  148.862  191.936     12947.08
 183.712   90.478  202.763     12925.43
 162.270   31.352  268.522     12925.43
 160.083   24.256  270.856     12903.78
 181.169  138.249  354.499     12882.13
 153.046   43.391  257.289     12860.48
 355.105   37.278  224.288     12860.48
 338.064  156.691  105.577     12817.18
  19.848  136.963  302.220     12795.52
   2.238   87.154  207.589     12795.52
  13.586   44.939  248.678     12795.52
 166.882   22.906  259.178     12773.87
 180.283   88.360  195.040     12752.22
 183.173  101.772  207.427     12708.92
 189.308   25.779  239.306     12708.92
 210.273   31.184   33.230     12687.27
   7.754  122.238  172.153     12687.27
 269.224  164.857   88.153     12665.62
 191.762  153.931    6.685     12600.67
  39.419  158.629  327.825     12600.67
 157.107  138.725  120.775     12600.67
 355.763   91.819  187.595     12557.37
 307.163  150.409  120.122     12535.72
 183.914   84.877  205.583     12514.07
 161.413   37.851  251.020     12514.07
 168.370  152.989  155.688     12492.42
 324.176   19.708  271.731     12492.42
 203.533   20.162   54.548     12492.42
 154.005  100.516  159.162     12405.81
  13.381   35.002  221.978     12232.61
  51.819   11.594  199.295     12232.61
 185.588   42.925  220.232     12210.96
 323.021   26.055  248.527     12210.96
 149.201   40.390  256.087     12189.31
 126.719  151.202   87.241     12189.31
   4.971   89.530  213.815     12146.01
 191.200   93.819  178.903     12102.70
  32.678   58.166  168.337     12102.70
 359.105   91.940  192.695     12059.40
 183.865   87.837  207.955     12037.75
 180.088   94.722  177.718     12037.75
 201.209   26.261   49.451     12037.75
 354.052   20.120  228.757     11972.80
 172.004   38.069  221.407     11907.85
 183.135  154.629  309.218     11886.20
   0.458   83.567  183.203     11842.90
   9.895   92.171   89.994     11842.90
  13.017  116.220  174.456     11821.25
  20.181   37.753  202.053     11821.25
  14.625  163.683  126.480     11821.25
  13.722   41.077  214.176     11799.60
  12.524  103.071  259.470     11712.99
 171.097  141.532  296.806     11604.74
  17.080  139.238  305.255     11604.74
 352.702  140.737  279.378     11583.09
 346.409   36.209  261.314     11539.79
 209.163   39.130   50.269     11539.79
 215.979  152.624  338.310     11539.79
 210.893  138.528    9.119     11496.49
 173.665  112.224    9.250     11474.84
 166.461   97.013  259.821     11474.84
 177.498   94.345  201.279     11453.19
 269.205   21.500  322.990     11431.53
   3.639   79.150  215.245     11431.53
 185.877  138.900  291.952     11409.88
 341.938  150.498  271.346     11344.93
 178.180   32.800  215.473     11301.63
 200.434   29.606  231.905     11258.33
  14.329   93.857  206.725     11258.33
 171.566   23.574  239.148     11215.03
 198.065   82.014  216.383     11215.03
 194.092   81.893  210.303     11215.03
 186.970   89.013  186.156     11193.38
 301.973   27.131  262.593     11171.73
 342.906   43.806  248.100     11150.08
 148.064   29.612  306.172     11128.43
 358.844  108.227  297.888     11085.12
 198.076  140.716  126.770     11020.17
 351.340  144.543  288.301     11020.17
  10.763   89.129  153.299     10933.57
   2.876   79.860  198.467     10911.92
 352.609  139.411  155.980     10890.27
   0.204  138.285  186.566     10890.27
   1.259   63.907  193.506     10890.27
   1.126   96.213  204.644     10868.62
 214.029   32.216   45.535     10846.97
  16.084   33.751  231.969     10825.32
 168.233  143.540  343.053     10760.37
   7.472   27.377  113.545     10738.71
  11.386  150.126  177.324     10695.41
 357.622  141.416  210.020     10673.76
 353.783   24.311  230.589     10673.76
 189.773  150.791  302.192     10673.76
 181.545   75.303  210.792     10652.11
 185.116   32.607  229.063     10652.11
 178.844   93.177  201.399     10543.86
  28.715  147.188    9.165     10522.21
 172.009   42.518  232.558     10522.21
 353.649   38.328  271.470     10522.21
 356.260   26.604  224.047     10504.17
 334.959   27.206  265.707     10500.56
 191.345   34.273   14.340     10478.91
   1.387   28.813  222.357     10435.61
  15.032   34.117  240.422     10413.95
 144.896   35.271  254.273     10392.30
 170.599  142.723  352.664     10392.30
 153.803   36.218  258.535     10392.30
  31.425   29.006  218.636     10392.30
 183.257   99.250  210.879     10370.65
 193.306   30.219  231.385     10349.00
   7.184  148.226  181.307     10349.00
 179.039   79.016  192.683     10327.35
 178.789   20.084  233.700     10327.35
   7.085  152.146  169.272     10284.05
  33.289  142.977  339.980     10284.05
  30.920   38.716  204.351     10262.40
 195.643   90.365  206.536     10262.40
  69.236  162.720   67.936     10197.45
 207.107   32.503  212.952     10197.45
 351.386   42.070  241.759     10197.45
 351.790  147.438  343.352     10197.45
 160.819   38.679  259.305     10175.80
 166.136   32.971  241.657     10175.80
 346.664   33.636  258.188     10154.15
 196.886   29.988  212.192     10110.85
 167.830  155.167  144.054     10067.54
  53.497  151.563   41.009     10045.89
 192.186  149.356  158.131     10045.89
 169.312   52.995  220.936     10045.89
 210.589   33.156   32.058     10002.59
  24.229  152.027  202.382     10002.59
 174.043   71.778  203.356      9980.94
 345.334  148.161  146.565      9980.94
   1.536   25.887  245.612      9959.29
 344.180   22.609  254.898      9959.29
 170.283   24.312  228.429      9959.29
 346.934  141.940  182.624      9894.34
 191.477   82.936  186.474      9894.34
   7.468   49.207  190.074      9851.04
 152.968   22.202   87.841      9764.44
 323.510   39.403  260.436      9750.00
  10.982   98.007  321.355      9742.79
  29.638  153.275  188.111      9677.83
 358.254  104.174  175.043      9656.18
 354.060   82.291  134.351      9656.18
 344.633  148.610  148.626      9656.18
 355.488  100.666  168.003      9634.53
 169.473   45.889  247.855      9634.53
 320.202   29.602  281.080      9591.23
 184.566   60.906  196.196      9569.58
 181.405   32.355  253.973      9547.93
 357.662   76.040  206.855      9482.98
 182.729   94.968   91.188      9482.98
   2.717  132.016  158.344      9461.33
 341.175  154.005  123.200      9439.68
 352.794   27.686  257.152      9439.68
   8.954   44.872  190.207      9353.07
 185.710   49.198  229.534      9288.12
 359.540   92.889  226.272      9288.12
 188.858  146.968  299.511      9266.47
 153.004   26.122  257.250      9266.47
  18.373  139.796  192.364      9244.82
 187.192   93.468  174.864      9223.17
   7.714   77.728  158.848      9201.52
 353.180  153.012  344.009      9179.87
 356.893   38.664  201.521      9136.57
 221.574   33.401   38.602      9122.13
 182.282   69.328  199.999      9114.92
 250.210  134.198   50.075      9049.96
 200.832   22.286  202.793      9049.96
 174.670   82.716  163.148      9049.96
 179.136   29.497  252.874      9049.96
  28.237  139.971  352.327      9028.31
 185.062   32.799  231.007      9006.66
 348.315   84.181  245.137      8985.01
 197.853   18.462  235.355      8941.71
 187.077  101.936    3.218      8941.71
  26.104  140.596  171.747      8941.71
 151.523   36.737  259.223      8920.06
   2.064   77.030  108.087      8920.06
  10.210   39.560  215.104      8898.41
   7.795  148.079  179.283      8855.11
 176.279  121.892  286.812      8855.11
 150.111  136.688  295.305      8811.81
   7.633   37.865  230.026      8811.81
 307.397  142.112  110.553      8797.37
 198.985   32.871  225.062      8790.16
 166.483  152.745  148.401      8768.51
 182.100   83.316  199.307      8768.51
  17.255   83.611  202.522      8768.51
  29.544   36.731  158.386      8725.21
 169.871  145.656  348.903      8703.55
  45.574   27.633  178.692      8681.90
 359.040  112.924  186.105      8681.90
 159.231   42.993  272.057      8660.25
 182.299   85.623  219.731      8660.25
 258.931   39.692  340.002      8638.60
   9.095   92.591  247.452      8616.95
 357.011  100.136  282.684      8616.95
 134.497   77.426  267.074      8616.95
 350.543   85.068  249.437      8595.30
 147.016   24.403  255.318      8595.30
 348.919   33.015  259.837      8573.65
   0.804   88.409  271.689      8552.00
 349.743   32.477  243.198      8508.70
 355.594   82.467  257.724      8498.60
 353.275  106.482  274.779      8487.05
 187.879   96.145  247.705      8465.40
 338.197  142.825  140.078      8443.75
 356.970   93.602  169.997      8422.10
 344.909   40.417  264.039      8422.10
 329.240  148.542  104.844      8400.45
 192.951   29.114   41.251      8400.45
 186.336   23.572  245.531      8400.45
   3.301   80.604  211.707      8378.80
  28.130  152.491   20.789      8378.80
 171.551   43.078  218.856      8378.80
 144.371   29.064  107.237      8357.14
  20.237   30.385  193.272      8357.14
 162.629   32.293  252.985      8335.49
  32.553  135.033  302.553      8335.49
   2.780  116.732  308.001      8335.49
   7.886  144.790  140.072      8335.49
 180.716   35.842  222.786      8313.84
 182.491   49.873  250.169      8313.84
  42.565  146.561  344.426      8292.19
 141.731   30.288  275.308      8270.54
 172.670   46.380  246.502      8248.89
 358.368   92.821  100.300      8248.89
 352.561   30.863  265.544      8248.89
   7.104   42.907  228.256      8248.89
 202.826   27.873  190.249      8248.89
 358.211   91.342  195.256      8227.24
 166.146   28.663  243.993      8227.24
 197.728   22.782   51.087      8205.59
 355.572  134.073  119.637      8183.94
 271.356   22.491  338.206      8183.94
  13.574   49.599  218.938      8162.29
 359.162   83.493  267.336      8140.64
 176.161   77.238  188.082      8140.64
   7.485   88.609  209.354      8140.64
 331.022   36.543  293.291      8118.99
 179.427   30.808  243.429      8075.69
 349.370   32.443  254.712      8075.69
 160.289  145.129  135.181      8075.69
 349.485   33.778  263.201      8010.73
  12.024  140.104  194.995      8010.73
 192.862   93.616  191.753      8010.73
 167.856   93.561  267.430      8010.73
 192.763  141.524  308.162      7989.08
 173.765   96.153  158.850      7967.43
   1.360   64.627  197.414      7967.43
 185.358   98.151  219.916      7967.43
 173.145   74.784  219.831      7945.78
 185.960  134.665    0.168      7902.48
 273.086  154.252   95.373      7859.18
 340.373   52.737  254.224      7837.53
  14.501   31.869  231.435      7815.88
 166.372   75.868  266.429      7794.23
 191.566   87.060  197.193      7794.23
 340.021   23.066  240.486      7794.23
   8.357  144.767  298.821      7772.58
   2.112   99.040  219.248      7772.58
 191.084   95.502  200.090      7707.63
 346.285   35.921  241.555      7707.63
 142.889  153.240  319.721      7707.63
 359.536   86.002  187.505      7664.32
 211.317   17.681  159.265      7621.02
 165.201  148.399  123.406      7599.37
 340.242   40.573  263.913      7577.72
   4.884  144.453  188.525      7577.72
 356.774   24.576  216.328      7556.07
 170.066   75.095  254.591      7534.42
 345.716  132.904  328.381      7491.12
   2.247   86.088  175.497      7491.12
 311.649   37.453  292.925      7447.82
  18.282   34.464  170.368      7426.17
 177.500   84.254  239.944      7426.17
 326.489   48.245  274.436      7404.52
 358.037   38.364  232.500      7382.87
 342.290   30.063  265.175      7382.87
 352.929  107.358  146.501      7361.22
 198.361   24.958  219.602      7339.56
   0.717  105.633  192.273      7317.91
 176.305   89.795  206.197      7296.26
 204.430   42.834  214.961      7296.26
 348.069   45.917  269.375      7274.61
   3.455  101.911  118.566      7231.31
 206.053   26.776  194.311      7231.31
  26.078  156.777  157.347      7209.66
 304.189   30.842  290.589      7166.36
   7.620   85.453  223.485      7123.06
 350.695   50.257  231.154      7123.06
 231.409   21.366   24.844      7123.06
 178.498   80.580  203.207      7079.76
  22.777   33.077  182.034      7079.76
 346.296   95.094  191.850      7036.46
 350.633   34.236  224.929      7036.46
 138.000  134.577  102.886      7036.46
 353.113  157.282  178.207      6993.15
 186.551   33.305  238.510      6993.15
  12.790  146.443  302.564      6993.15
  11.988   38.450  171.914      6971.50
 181.858   72.436  252.795      6957.07
 179.894  147.748  161.355      6949.85
 184.573  144.282  159.405      6928.20
  10.381   39.152  218.346      6928.20
  71.482  149.612   63.295      6928.20
 359.507  132.232  179.261      6906.55
   8.069   90.581  318.877      6884.90
  28.503   38.704  144.268      6863.25
   8.628  151.182  309.418      6841.60
   9.758  149.496  167.512      6819.95
 356.837  131.531  306.198      6798.30
   5.438   38.551  227.439      6798.30
  33.666   40.046  174.525      6798.30
 336.791  152.489  115.903      6776.65
 198.089   88.393  208.855      6776.65
 183.299  141.064  341.018      6755.00
 195.942   33.523   46.573      6755.00
   1.452  141.606  288.004      6733.35
 247.876   37.650  355.641      6711.70
 335.564  161.111  107.687      6668.40
 163.034   31.007  242.173      6668.40
 182.966   94.239   91.941      6646.74
 240.413   24.195    0.501      6646.74
 354.202  142.524  177.508      6625.09
 185.207   91.906  204.076      6581.79
 180.866   75.537  205.799      6581.79
 159.911  153.397  324.191      6538.49
 357.436  137.273  158.561      6516.84
 181.160   88.914  204.586      6495.19
   7.367   36.977  245.620      6473.54
 188.937   37.004  234.670      6473.54
 341.428  140.920  131.187      6473.54
 192.297  144.945  358.988      6473.54
 346.505   24.605  231.988      6430.24
 357.389  149.971  286.534      6430.24
 342.850   59.449  195.260      6347.24
 358.694  104.808  111.218      6343.64
  18.434   23.744  216.155      6343.64
 165.765   43.278  238.805      6321.99
   6.137   36.467  226.912      6321.99
 180.319  101.544  220.380      6300.33
 317.525  139.625  123.267      6235.38
 190.507   91.876  210.242      6213.73
 355.409  143.377  164.526      6213.73
 351.816   38.796  227.582      6192.08
 323.240  150.423  119.822      6192.08
   4.429   45.249  224.921      6170.43
   8.023   33.481  227.730      6170.43
 162.214  147.063  305.621      6148.78
 344.754   44.169  261.181      6127.13
 348.378  130.109  170.882      6127.13
 287.450   23.625  315.829      6127.13
 349.730   40.962  241.769      6127.13
 100.987   31.367  314.600      6105.48
 150.635   37.417  255.517      6105.48
 183.787   45.240  227.183      6105.48
   4.746   37.963  229.380      6083.83
 355.959  158.503  144.537      6083.83
 326.710   16.152  260.264      6062.18
 225.819   29.095   23.207      6040.53
   2.265   80.557  201.166      6040.53
 323.184   36.564  263.684      6018.88
 176.723   95.193  197.118      6018.88
 319.198  158.417  140.167      5997.23
 300.236   35.985  312.611      5997.23
 358.139   99.415  192.318      5997.23
 354.613  102.781  151.149      5975.57
 177.114   87.119  215.256      5975.57
 158.664  149.764  286.057      5953.92
  22.136  148.279  203.781      5953.92
  18.006   42.435  168.079      5953.92
 163.409   24.001  253.725      5932.27
 300.096  142.355   95.864      5932.27
 170.151  145.632   28.221      5910.62
  40.558   27.505   13.432      5910.62
 353.972   88.149  191.220      5910.62
 176.136   76.935  219.466      5910.62
   6.017   25.117  252.230      5910.62
  11.756   94.174  129.791      5888.97
   0.867   94.227  186.055      5888.97
 183.611   30.463  235.706      5867.32
 359.526   87.314  235.422      5867.32
 174.541   25.675  230.600      5867.32
 330.509   36.565  240.462      5867.32
   5.273   81.689  162.389      5867.32
 159.424   13.003  277.861      5845.67
 176.820   84.791  262.585      5845.67
 333.340  150.257  146.042      5824.02
 339.693   36.389  213.161      5824.02
 316.743   26.056  285.355      5802.37
   7.580   91.082  271.489      5802.37
   9.726  101.444  206.923      5780.72
 338.108   66.579  258.939      5780.72
  17.696  163.429  301.123      5759.07
 195.872  148.324  323.420      5744.63
   2.699   66.796  185.058      5737.42
 338.252   26.943  261.047      5715.77
  35.203   35.542  154.766      5715.77
 143.803   20.709  281.102      5715.77
   9.856  134.686  299.265      5715.77
  25.158  149.376   13.056      5715.77
  18.677   31.242  205.300      5672.47
 349.038   53.493  192.160      5672.47
  13.108  144.930  300.291      5629.16
  14.606  150.090  315.299      5629.16
 167.119   43.434  244.617      5629.16
  35.311  160.422  191.242      5607.51
 344.120  144.039  172.265      5607.51
 161.966   42.005  247.322      5607.51
 196.262  140.384    8.640      5585.86
 352.416   74.787  259.275      5585.86
 200.060   43.259  210.847      5585.86
 353.307  142.225  103.033      5585.86
 193.947  144.442  351.161      5575.04
 194.930  105.347  309.762      5564.21
 177.081   83.168  220.029      5564.21
 160.218  142.402  325.754      5542.56
 351.348   49.877  233.134      5542.56
   3.851   75.126  169.165      5542.56
   0.689   74.983  234.497      5542.56
 252.570   26.922  163.962      5520.91
 185.177   84.749  223.959      5499.26
 172.226   57.626  219.979      5499.26
  30.089  154.569   29.461      5477.61
  30.717   22.092  213.032      5455.96
 191.045   43.508  209.611      5434.31
 182.624   97.552  227.545      5412.66
   1.582   48.610  229.948      5391.01
 160.921   34.581   83.506      5391.01
  10.751   37.283  215.512      5391.01
 166.617  148.676  149.631      5391.01
 352.341  153.205  281.247      5369.36
 183.455  104.510  353.943      5347.71
  10.935   23.634  216.011      5304.41
 183.104   80.827  200.485      5261.10
 185.498   99.611  201.901      5261.10
   3.109   97.915  202.662      5239.45
 358.246   76.474  198.941      5217.80
 179.827   45.082  216.769      5217.80
 194.396   91.752  199.847      5196.15
 350.624   78.788  222.983      5174.50
  11.143   50.108  222.278      5174.50
 346.614   27.395  250.781      5174.50
 346.597  141.745  179.386      5131.20
 176.646   20.978   62.522      5131.20
 358.786   91.948  204.625      5109.55
   8.960   82.773  205.388      5109.55
 206.990   28.353   55.165      5087.90
   1.810   87.595  191.248      5087.90
 339.072  152.018  289.154      5087.90
 185.996  121.603  353.047      5066.25
 150.845   40.298  270.451      5066.25
 229.161   42.021  195.632      5066.25
 215.719   31.466  208.591      5066.25
   3.077   50.087  263.753      5066.25
 344.689  145.054  130.370      5044.60
 186.450   81.304  244.629      5044.60
  12.358  141.403  299.357      5044.60
   8.412   19.622  211.815      5022.95
 355.758   87.898  195.623      5022.95
 336.405   18.141  265.004      5001.30
 177.536   81.470  179.875      4979.65
 359.211   34.894  162.379      4979.65
 189.200   78.900  196.047      4979.65
   3.914  105.166  283.260      4936.34
   1.974   92.954  109.331      4936.34
 350.548   42.755  241.847      4936.34
  12.899   34.577  199.744      4914.69
   6.849   30.256  235.703      4914.69
 182.080   58.469  234.778      4893.04
   3.457   34.855  239.577      4871.39
   1.066   53.330  236.630      4871.39
   9.812  150.391  359.561      4806.44
 321.582   24.705  269.412      4806.44
 350.187   97.099   93.139      4806.44
 333.692   38.076  261.692      4806.44
   6.511  134.347  189.318      4784.79
 176.300   82.463  248.670      4784.79
 194.049  145.631   83.141      4784.79
   6.398   69.299  182.833      4784.79
 177.368   76.842  203.957      4763.14
   1.345  125.258  171.944      4763.14
 351.688   34.116  191.404      4763.14
   8.169   95.425  205.469      4741.49
 350.502   88.666  200.310      4741.49
 343.439   37.201  233.798      4741.49
 351.440  103.308  149.171      4719.84
   9.881   28.733  235.266      4719.84
 346.614   89.305  219.557      4719.84
 162.606   32.247  265.129      4698.19
 354.703   77.526  173.789      4683.75
 329.831   36.562  284.105      4676.54
   7.621   49.620  233.759      4633.24
 193.473   89.711  285.917      4633.24
 164.754   25.996   73.433      4633.24
 355.318   75.640  204.624      4611.59
 151.436   65.004  256.571      4611.59
 238.674  134.995   27.641      4611.59
 343.660   44.587  250.973      4611.59
 334.504   25.560  280.436      4611.59
 357.820   97.883  198.219      4611.59
 175.633   97.658  204.784      4589.93
   3.151   22.163  228.107      4589.93
 356.476   85.738  216.216      4568.28
 358.534  110.100  194.119      4546.63
  13.372   92.244  209.728      4546.63
 352.843   31.464  238.413      4546.63
  18.338   43.486  202.340      4524.98
 355.194   80.773  216.527      4506.94
 164.688   43.970  255.140      4503.33
 159.274  143.731  129.254      4481.68
 175.012   87.716  218.786      4481.68
 181.307   67.975  235.758      4481.68
 172.851   63.515  234.509      4460.03
   8.607  144.673  293.373      4460.03
 210.087   42.946  183.526      4460.03
 351.534  152.010  138.078      4460.03
  23.095   29.597  227.474      4438.38
 358.037   40.266  249.816      4438.38
 335.860   26.710  259.826      4395.08
  58.880  152.323   30.488      4373.43
 201.081   40.318   49.661      4330.13
 167.766   45.258  196.681      4330.13
   3.009  161.036  295.097      4308.48
 351.967  150.751  233.051      4308.48
 356.754   82.005  195.534      4308.48
  26.476  148.989   10.019      4286.83
   0.899   99.250  217.653      4265.17
 154.503   36.884  267.271      4265.17
 327.140   30.610  264.291      4265.17
 357.424   53.413  227.061      4265.17
 256.545  138.347   60.292      4243.52
   9.054   95.768  249.362      4243.52
 170.660   32.251  207.677      4243.52
 176.969   72.145  197.351      4221.87
 188.681  101.705   15.450      4178.57
 197.847   40.380  180.290      4178.57
 328.845  151.407  134.768      4178.57
 184.919  130.458   10.883      4156.92
 178.035   83.164  221.864      4156.92
  16.923   32.646  221.714      4135.27
 343.531  102.999  171.073      4113.62
  17.699   31.109  227.512      4113.62
   4.220  157.852  293.096      4113.62
  22.171   38.813  183.667      4113.62
 229.169   37.876  177.183      4113.62
  40.345   36.146  150.150      4113.62
  10.950   35.568  176.644      4113.62
 342.088   38.144  261.755      4091.97
 355.047   28.524  269.210      4070.32
 179.992   96.653  177.727      4070.32
 155.660  153.999  342.912      4070.32
  11.656  137.375  323.348      4057.09
 167.537   36.006  256.231      4048.67
 171.798   65.161  243.267      4048.67
 195.654   32.067  219.424      4048.67
 341.422   40.109  256.949      4027.02
   8.591   33.217  236.097      4027.02
   0.218   31.346  225.632      4005.37
 181.325   99.932   95.806      4005.37
 201.104   45.171  222.563      4005.37
   0.002   70.629  187.080      3983.72
 345.445   33.796  235.214      3983.72
  14.705  143.992  259.580      3983.72
 206.629  142.272   17.840      3962.07
  30.592  132.845    9.752      3962.07
 359.109   99.484  201.358      3962.07
 205.671   36.958  221.458      3940.42
  22.396   32.385  206.868      3940.42
 338.344   50.418  266.424      3918.76
 342.197   29.243  235.882      3918.76
  29.114   25.447  182.499      3897.11
 205.713  142.857   33.994      3897.11
   9.063  144.666  133.353      3888.69
  35.394   32.161  209.429      3875.46
   6.089   38.731  226.917      3875.46
 190.948   38.673  208.717      3853.81
 174.667   28.616  237.440      3853.81
 153.174   16.390  255.874      3853.81
 194.996   84.196  202.365      3832.16
 356.745   43.497  257.237      3832.16
 194.139   22.121  228.344      3810.51
   6.711  136.098  184.265      3810.51
 217.004   33.361  174.182      3810.51
   8.097   51.348  228.462      3788.86
 140.745   32.359  260.149      3788.86
 182.557   50.120  225.070      3788.86
 188.509   27.968  218.947      3767.21
 350.655   44.300  232.023      3767.21
 304.410  155.817  103.833      3767.21
 303.903  138.847   99.800      3745.56
 337.990   48.943  266.410      3745.56
 202.231   24.894   50.084      3745.56
 344.623   63.400  251.009      3702.26
 326.050  149.468  146.707      3702.26
 183.607   35.675  241.371      3702.26
 343.062   34.505  256.618      3680.61
 173.497  146.792  356.876      3680.61
   7.524  143.323  151.982      3680.61
 346.577   83.435  253.544      3680.61
  26.342   32.859  214.737      3680.61
 128.765   28.608  293.738      3658.96
   3.723   86.271  236.779      3658.96
   9.062   76.042  182.946      3658.96
 241.037   37.487   14.617      3658.96
   5.137  150.745  294.227      3658.96
 195.808  131.171  142.210      3637.31
 346.073  149.578  146.264      3637.31
 196.598  103.740   74.541      3594.01
 338.287  142.238  140.250      3594.01
 186.919   36.852  229.614      3572.35
 343.686   27.744  265.380      3572.35
 221.088  145.525   26.255      3572.35
 348.881  106.025  152.805      3550.70
 187.103   79.895  196.608      3550.70
  11.822   24.882  226.568      3529.05
 131.709   35.521  255.933      3529.05
  23.622   34.776  206.310      3529.05
 172.682   29.459  257.717      3529.05
 353.904  146.141  289.684      3529.05
 286.119   16.044  315.035      3529.05
 349.846   30.328  233.623      3485.75
  25.797   38.667  167.049      3485.75
 172.931   74.102  239.063      3464.10
 168.061  157.497  140.695      3464.10
 179.807   94.014  233.129      3464.10
 176.867  131.681  268.263      3442.45
   4.067   40.418  233.329      3442.45
  30.716  157.009    7.538      3437.64
 184.367   27.257  250.070      3420.80
 274.052   18.591  127.759      3420.80
 183.458  112.416  232.017      3420.80
 354.844   48.379  238.565      3420.80
  68.956   17.076  162.993      3402.76
 163.033   99.827  155.866      3399.15
 199.136   42.337  184.115      3399.15
 356.632   43.323  234.231      3399.15
 357.567   96.901   94.601      3377.50
   1.001   29.183  236.924      3377.50
 345.017   36.583  247.245      3377.50
 204.516  153.138  334.336      3377.50
 347.188   26.734  253.573      3355.85
 359.491   91.760  212.480      3355.85
 175.092  145.040    1.604      3334.20
   8.176   89.784  196.379      3334.20
 156.760   32.535  241.358      3312.55
  13.934  139.534  317.991      3312.55
 338.313   25.598  254.677      3290.90
   3.960   40.195  231.203      3290.90
 182.929   86.231  181.527      3290.90
 209.304  155.575   38.407      3269.25
   0.374   35.344  218.213      3269.25
  11.784  131.572  188.545      3247.60
 179.570   85.973  188.655      3225.94
  23.856   40.830  213.143      3225.94
  10.461   39.227  223.385      3225.94
  11.686   46.939  182.903      3225.94
 179.661   97.477  191.114      3225.94
  15.378   32.320  243.832      3204.29
 175.243   37.445  254.883      3204.29
  25.713   37.131  153.726      3182.64
  89.096  152.647   50.079      3182.64
   6.542  103.920  211.226      3182.64
 332.030   97.378  261.650      3160.99
 186.313   27.605  223.847      3160.99
  13.407   83.810  193.366      3139.34
 181.085   25.648  219.670      3139.34
 346.489   32.849  243.494      3139.34
 257.751   21.828  340.624      3139.34
  12.204  149.503  190.438      3117.69
 200.883  149.787    7.674      3117.69
 337.863   45.259  238.705      3096.04
  20.137  134.088  324.378      3096.04
 175.554   97.146  192.121      3096.04
 200.338  144.759  319.488      3096.04
   2.010  107.690  163.791      3074.39
 329.622   45.086  244.562      3074.39
 337.675   33.834  264.910      3052.74
 181.226   79.117  207.488      3052.74
   0.517   37.720  240.038      3052.74
 112.052   31.922  112.763      3052.74
 331.887   36.778  281.633      3052.74
  14.731   46.830  224.160      3031.09
 356.280   96.582  203.515      3031.09
 234.475   31.409  182.865      3009.44
 151.712   45.623   72.922      2987.79
 330.174   43.410  262.240      2966.14
 183.233   93.799  204.394      2966.14
 277.414  146.723   54.083      2966.14
  18.109   32.839  212.995      2944.49
 332.205   43.792  253.268      2944.49
 145.235  147.065   29.186      2922.84
 174.795   64.638  266.407      2922.84
  85.507  147.283   80.675      2901.18
 205.746   46.004  229.556      2901.18
 236.570   33.994   11.648      2879.53
  24.242   28.671  224.755      2879.53
 350.315   86.203   90.835      2857.88
 188.812   31.001  184.151      2836.23
 330.757   36.929  272.647      2836.23
 107.905   48.370   25.493      2836.23
 187.617  135.736    5.493      2814.58
 354.081   31.380  241.025      2814.58
 341.637   40.478  268.410      2814.58
 357.861   89.211  125.386      2792.93
 178.295  143.553  342.904      2792.93
 191.222  125.514    9.650      2792.93
 171.906   13.177  254.977      2792.93
 279.060   34.701  332.329      2792.93
  32.909  152.667  190.426      2771.28
 325.226   20.346  252.355      2749.63
 179.049   36.154  225.601      2749.63
   3.567   31.159  238.282      2727.98
 175.377   32.727  238.648      2727.98
  12.295   69.928  192.608      2706.33
 195.245   22.817  221.872      2706.33
 185.020   87.402  218.612      2684.68
  85.533   33.982  349.454      2663.03
 200.520   24.632   42.228      2663.03
 240.771   31.018  156.322      2663.03
 342.070   40.075  248.344      2663.03
 154.608   80.228  278.011      2641.38
 358.901   89.938  192.219      2619.73
 188.819  156.441  295.053      2619.73
 327.340   44.027  313.704      2619.73
 351.511  141.822  349.916      2598.08
   5.766   92.875  220.494      2598.08
 184.867  154.710  359.531      2598.08
 181.005   91.236  194.743      2576.43
  26.088  142.156   14.435      2569.21
 354.884  148.742  281.231      2554.77
   7.239   34.705  225.275      2533.12
  18.484  149.646  205.644      2511.47
  25.573   90.891  198.428      2511.47
 166.404   35.833  263.571      2511.47
 311.156   34.890  288.303      2489.82
 323.961   38.370  271.467      2489.82
  12.871   72.951  214.321      2468.17
 183.929  140.432  156.630      2468.17
  24.108  133.856  318.961      2468.17
 354.458  161.367  284.577      2446.52
 343.220   78.674  199.180      2410.44
 192.698   71.085  233.519      2403.22
 188.633  151.890  166.146      2381.57
 182.185   83.951  186.511      2381.57
  32.025   28.620  199.462      2381.57
 184.971  134.043  324.212      2381.57
   9.559   35.670  234.291      2359.92
   5.501  150.912  349.308      2359.92
   5.849    0.491  198.578      2359.92
 340.814  136.884   99.233      2316.62
   9.045   76.814  195.883      2294.97
 356.486   72.756  110.385      2294.97
 358.397   97.787  260.842      2294.97
 169.605   32.581  244.990      2273.32
 178.980   43.908  225.361      2273.32
 191.276   21.800  229.289      2273.32
 331.827  148.826  124.005      2273.32
 203.853   34.625   53.900      2251.67
 328.553  142.942   94.621      2251.67
 173.308   97.457  144.912      2251.67
 352.321  152.462  286.469      2230.02
  24.235   37.593  168.076      2230.02
 177.526   94.562  203.740      2230.02
 206.417   33.047  219.435      2208.36
  25.843   25.249  233.714      2208.36
 356.710   82.027  199.139      2208.36
 330.149   25.276  237.704      2186.71
   8.826   47.876  256.142      2165.06
  18.224   85.676   94.324      2165.06
   6.253   35.771  240.511      2143.41
   7.874   55.003  223.127      2143.41
 172.055  101.588  265.957      2121.76
 178.432   82.680  196.838      2100.11
  32.268   40.274  165.155      2100.11
   2.662   93.934  214.194      2100.11
 181.426   43.167  229.094      2100.11
 185.678  146.997  330.407      2078.46
 184.515   86.182  191.823      2078.46
 215.123   34.122  201.071      2078.46
 347.897   35.117  261.705      2056.81
  45.227  143.288   28.596      2056.81
   4.782   90.164  202.784      2056.81
 347.582   85.584  191.035      2056.81
 159.709   37.378  266.786      2035.16
   8.032   97.716  224.888      2035.16
   9.947  155.826  199.280      2035.16
  12.974  134.740  320.906      2013.51
 218.479   41.693  349.459      2013.51
 188.004   32.931  216.862      2013.51
 346.814   28.783  254.937      2013.51
 354.089  149.218  326.382      2013.51
 345.006   71.735  224.029      1991.86
 359.365   98.483  264.886      1991.86
 173.959   96.951  195.506      1991.86
 183.408   89.435  229.417      1970.21
  26.391   32.284  173.053      1970.21
  48.480   18.852  198.770      1970.21
 168.083   40.105  251.169      1970.21
 356.241   83.311  203.998      1948.56
 173.630   90.755  132.668      1948.56
 205.128   43.481  212.892      1948.56
 126.813  141.146  104.889      1926.91
 169.516  105.035   15.178      1905.26
 188.128   88.128  220.139      1905.26
 170.783   90.937  191.887      1905.26
  18.651   40.042  172.342      1883.61
 358.009  121.604  155.643      1883.61
   0.652   84.896  205.379      1883.61
 194.036  144.391  321.562      1883.61
 181.451   89.285  194.898      1883.61
 237.777  130.807   22.333      1883.61
 354.805  106.442  207.054      1883.61
   5.285   56.122  210.696      1883.61
 200.168   98.139  234.866      1883.61
 175.975   51.248  232.514      1861.95
  29.164   12.129  193.844      1818.65
 154.402   21.326  210.681      1818.65
  13.904   29.906  231.577      1818.65
 180.089   39.388  231.568      1797.00
 357.611   97.806  186.320      1797.00
   3.255   22.615  236.016      1797.00
 161.648   16.886  246.519      1775.35
 173.004  141.293  283.078      1775.35
 153.021   33.075  280.408      1753.70
 236.146  159.321  352.913      1753.70
  12.135  140.843  359.705      1753.70
 352.703   97.568  215.991      1753.70
   0.445   29.126  216.200      1753.70
 158.003   38.892  274.309      1732.05
  19.127   25.954  220.227      1732.05
 189.444   24.346  240.391      1710.40
 359.262   82.896  210.270      1710.40
 146.093   97.999  280.847      1710.40
  14.417   36.656  211.824      1688.75
 172.009   96.928  260.107      1688.75
 344.638  147.658  268.568      1688.75
 253.980   43.734  342.367      1688.75
   1.810  143.682  184.787      1667.10
 192.268   38.069  205.338      1667.10
 166.919   97.515  245.290      1667.10
   3.487   88.751  235.718      1667.10
 271.261  162.589   73.150      1645.45
 346.900  140.427  145.460      1623.80
 167.618  151.014  155.954      1623.80
 191.368   34.284  221.011      1623.80
 172.722  102.413  164.384      1623.80
 340.135  149.350  135.250      1623.80
  10.998   47.642  182.702      1623.80
   4.736  143.455  248.764      1602.15
 338.556   48.465  265.130      1602.15
  45.550   26.557  189.201      1580.50
 311.015   27.975  296.765      1580.50
 353.183   38.748  189.440      1580.50
 203.849   89.912  214.732      1580.50
 344.822   20.900   57.302      1580.50
 185.326   91.701  197.689      1580.50
  14.049   52.378  216.819      1558.85
  17.523   39.075  209.313      1537.20
 341.601   39.337  244.111      1537.20
 235.397   39.391   19.763      1515.54
 354.045   34.340  266.987      1515.54
 356.477   32.147  236.968      1515.54
 333.831   55.243  265.941      1493.89
 146.179  143.637  332.256      1493.89
 348.052   36.781  242.527      1493.89
  14.369   42.396  177.187      1493.89
 354.336   28.357  246.179      1472.24
 189.273   51.616  226.082      1472.24
   6.981  101.639  160.721      1472.24
 220.541  150.166  337.671      1472.24
   2.926   79.576  197.797      1472.24
 185.470  103.616    9.132      1450.59
 351.810  147.463  276.128      1450.59
 317.420   39.595  294.266      1428.94
 175.773  113.545  160.321      1407.29
   3.435  147.560  300.667      1407.29
 207.544   46.782   55.163      1407.29
 203.553   28.808  222.677      1407.29
 333.283  139.094  139.128      1407.29
 357.212   56.628  205.000      1407.29
 314.263   29.964  283.477      1407.29
 358.731   87.619  191.466      1407.29
 149.537  163.605  141.831      1385.64
 106.832   31.773   85.514      1385.64
 165.807   35.711  247.966      1385.64
  15.031   38.921  214.507      1385.64
 200.246   30.559  232.865      1363.99
 176.956   48.610  253.959      1363.99
 192.978   22.450  225.295      1342.34
 357.898  139.600  181.531      1342.34
 328.347   39.415  261.175      1342.34
 184.330   96.672  216.473      1342.34
 211.515   31.809  173.425      1342.34
 157.862   30.126   91.082      1299.04
 312.852  155.357  278.196      1299.04
 331.341   35.757  276.895      1299.04
   2.357   93.823  231.511      1299.04
 169.828   48.178  252.295      1277.39
 176.984   74.285  215.827      1277.39
 342.253   78.052  156.154      1277.39
 188.402   93.475  176.838      1277.39
 331.013   22.779  268.319      1255.74
 171.429   99.574  253.937      1255.74
 135.326   30.543  300.389      1234.09
  11.110   17.180  225.812      1234.09
 156.196   26.890   80.992      1212.44
 349.756   33.930  243.779      1212.44
 243.934  145.657  220.392      1212.44
 332.063   44.659  268.725      1212.44
 193.012  129.851    7.654      1190.78
 130.511   18.967  105.497      1190.78
 359.824  115.403  219.609      1190.78
 358.407   35.780  220.894      1169.13
 192.793   89.879  193.944      1169.13
 142.152  156.300  106.950      1169.13
 176.456  149.352  356.468      1147.48
 352.208   30.165  236.195      1125.83
 357.734   95.222  203.581      1125.83
 211.289   23.212  201.159      1125.83
   0.125   84.365  188.746      1104.18
 174.072  103.540   12.506      1104.18
 208.253  135.154  347.116      1104.18
 358.491   44.527  176.408      1104.18
 164.727   83.674  262.003      1104.18
 182.103  131.691  350.617      1082.53
 157.592  154.723  339.355      1082.53
  22.781  151.985  175.293      1060.88
 181.659  148.006  163.838      1060.88
 186.379   31.488  260.943      1060.88
 184.332   42.364  224.981      1060.88
 180.640  152.774  170.543      1060.88
  99.478   32.218  325.909      1039.23
 181.818   98.209  197.691      1039.23
  30.451  151.269  353.081      1039.23
  82.161  146.599   81.250      1039.23
   3.532   51.502  224.529      1028.41
 175.157   42.328  228.138      1017.58
   6.009   31.254  203.507      1017.58
 176.145  116.838   17.972      1017.58
 359.965   51.232  249.909       995.93
   3.307   77.142  202.970       995.93
 186.011   94.307  195.951       995.93
 284.220   26.940  302.276       952.63
 352.419   28.211  235.728       952.63
 355.117   82.733  221.558       952.63
   1.659   55.751  207.181       930.98
 167.243   41.753  261.810       930.98
 324.281    1.749  278.070       930.98
 159.549  140.959   90.727       909.33
 340.441   36.552  257.249       909.33
 168.851   46.367  247.587       909.33
 324.496  144.121   97.690       909.33
 334.791   28.216  266.792       909.33
 148.562  160.981  118.374       909.33
   2.584   60.325  221.200       909.33
 338.931   33.461  246.689       887.68
 357.829   96.815  198.380       887.68
   1.988  132.803  306.004       887.68
 358.574   33.073  245.177       887.68
 165.261   32.392  261.668       887.68
 351.689   24.099  231.370       866.03
 330.674   35.739  218.957       866.03
 347.007   42.155  208.857       844.37
 165.023  148.648  315.041       844.37
 168.098   35.323  258.171       844.37
 191.189   34.221  222.369       822.72
 204.285  139.918  273.242       801.07
 192.388   30.721  216.300       801.07
 345.598  152.540  113.007       801.07
 191.930   77.675  246.057       779.42
   5.437  151.966  183.014       779.42
  17.234  138.309  295.993       779.42
 178.890   42.009  225.091       757.77
 344.265   44.181  261.490       757.77
 342.258  139.253  273.558       757.77
 176.017   42.247  232.070       757.77
 357.177   29.905  233.807       757.77
  38.964   33.039  212.538       757.77
   2.374   26.208  235.930       736.12
   5.734   86.773  269.767       736.12
 230.633   97.063  117.276       736.12
 203.956   19.107  206.995       736.12
 350.783   97.905  141.240       714.47
 356.409   48.574  246.067       692.82
 322.355  151.866  104.303       692.82
 182.753   52.129  238.790       692.82
 358.358   45.452  234.987       692.82
 312.523   26.192  259.798       692.82
  14.185   30.083  230.913       671.17
  29.685   38.769  227.975       671.17
 178.424   91.952  208.088       671.17
 164.657   41.514  229.780       671.17
 350.807  149.054  128.627       671.17
   4.169   95.797  165.570       649.52
 183.088  148.146   10.987       649.52
 191.387  140.304  136.920       649.52
 357.076   92.400  195.017       627.87
  20.282   38.627  206.864       627.87
   0.174  118.624  285.705       627.87
 317.653  139.588  302.706       627.87
 181.857   68.104  195.159       627.87
 210.730   32.699  208.973       627.87
 139.894   31.754  295.396       606.22
  28.001   41.898  195.555       606.22
  18.416   38.578  172.275       606.22
  20.813   33.448  178.510       606.22
   0.057  149.924  189.302       606.22
   1.030   39.910  234.623       606.22
  48.944   76.303  242.484       606.22
 350.533  147.252  139.554       599.00
 173.879   96.662  204.118       584.57
 197.213  136.395  122.041       584.57
 175.371   92.446  190.742       584.57
 229.176  103.768  297.675       584.57
 185.526  103.711    9.505       584.57
 357.489  106.400  184.802       562.92
 187.068   42.051  227.347       562.92
 206.239   32.250  209.349       562.92
 178.121  128.516  340.708       562.92
 358.780   38.930  233.962       562.92
 348.162  138.483  178.366       544.87
 355.363   40.372  192.378       541.27
  14.174   42.760  213.037       541.27
  14.163   35.905  222.286       541.27
 349.302   45.170  250.684       541.27
   2.947  144.263  159.837       541.27
 185.088   86.755  141.757       519.62
   0.178   81.735  206.667       519.62
 346.084   34.422  275.962       519.62
 290.141  144.887  112.965       497.96
 167.082   91.802  245.507       497.96
  32.811  154.143  164.833       476.31
 235.200  122.062   57.265       461.88
   3.833   26.130  216.425       454.66
 184.408  139.151  302.562       433.01
   7.944   30.202  223.163       433.01
  65.753   17.488  337.220       433.01
 192.090   90.208  201.672       433.01
 324.451   34.938  269.773       389.71
  13.949  148.877  340.255       389.71
  46.921   95.115  107.115       389.71
 180.228   88.521  191.304       368.06
 177.328   43.094  239.533       368.06
 111.037   26.627  106.608       368.06
 210.697  132.558    6.462       346.41
   7.691   39.359  243.394       346.41
 358.662   43.907  184.419       346.41
  12.053   28.010  215.126       346.41
 197.640  134.140  358.449       346.41
 195.933   48.398  200.889       346.41
   1.428   27.143  235.367       346.41
  10.502  147.641  358.088       346.41
 356.797  130.944  171.342       324.76
 175.345   86.060  214.550       324.76
 165.643   39.774  265.902       324.76
 323.443   27.612  264.708       324.76
   5.206  144.293  285.958       303.11
 359.213   83.098  128.483       303.11
  12.203   39.040  186.508       303.11
 322.772  158.136  151.896       303.11
 164.579   39.224  263.397       281.46
   8.040   44.910  218.488       281.46
   6.446   29.081  248.427       281.46
   7.240   47.723  211.733       281.46
  24.641  151.831  214.610       281.46
   4.314  125.515  173.499       281.46
 201.797   37.115   47.534       259.81
   3.148   22.600  241.293       259.81
 183.927   79.380  189.270       259.81
   4.461  145.776  294.141       238.16
 359.181  101.046   97.806       216.51
 196.175   61.555  185.179       216.51
 323.083  148.400  328.839       216.51
   1.448   81.006  216.596        25.26
   5.594   31.483  262.498        25.26
 185.397   40.194  217.927        21.65
 179.848   49.380  249.242        21.65
  36.442  138.267  208.770        21.65
 345.191   23.900  213.457        21.65
 183.855   81.652  212.042        21.65
