TEXTURE AT STRAIN = 0
1.0   1.0   1.0
DISCRETE TEXTURE FROM ODF FILE ND_800C_5
B 2456
 183.381  143.752  189.257     68310.35
 202.390   43.842   68.333     39437.06
 174.905   33.456   80.507     37181.69
   6.013   72.724  152.626     30674.91
   9.091   32.415  183.765     29349.60
 170.127   31.262  330.077     24555.28
 349.568  151.018  295.157     21680.08
 352.968   94.698   94.361     21178.65
  16.886  140.397   70.657     20620.93
 318.529  143.602  280.401     20542.99
 190.186   86.346  257.270     20045.02
 184.543   82.806   26.386     19686.92
 182.421  100.188  259.894     19662.24
 192.704  148.579  192.304     18407.51
 183.898   43.287   64.188     18397.84
 180.182   32.332  256.215     18177.01
 181.612  133.487   27.062     17958.77
 176.747   89.421   26.354     17573.39
 174.276  127.021   58.314     17388.06
 167.928  148.172  323.603     17341.44
 182.659  155.825  201.162     17274.18
 164.040   39.493  356.503     17273.74
   9.534   32.130  222.999     17191.47
 187.255  148.340  250.490     16727.28
   3.697  142.270  331.111     16483.06
 185.514   36.997   57.664     16398.19
 336.599   38.886  331.482     16055.53
 167.680  144.461   36.840     15776.38
  19.386   98.330  146.783     15646.63
  10.475   31.342  302.364     15482.80
  13.870   84.250  148.732     15166.70
  24.278   24.283  291.074     15090.04
   4.887  143.483  322.910     14392.48
 174.811  120.403  215.551     14318.00
 342.389   26.196  331.260     14306.74
 179.759   48.357   72.402     14300.82
 354.594   31.165  195.565     14283.36
 345.750  151.326  216.449     14141.62
 193.385  101.172  270.581     14034.81
  37.044   37.244  267.129     13938.68
   9.489  145.584  323.153     13896.10
 201.704   33.334   86.072     13565.42
 173.155   35.317   68.250     13565.42
  33.803  156.195  329.067     13438.12
 182.915   32.594   82.603     13272.71
 357.640   30.180  177.535     13178.31
 322.840  148.410  274.499     12700.26
 358.829  100.708  161.660     12637.04
  15.504   93.385  167.981     12265.52
 170.625   33.064  101.795     12122.62
   4.349   97.018  157.814     12029.96
 156.579   30.582   81.962     12017.88
 183.481   82.612  259.579     11806.52
 176.135   98.419  340.916     11727.72
 190.505  102.022    0.791     11591.75
 174.068   62.105  240.375     11533.29
 359.772   89.490  157.694     11487.83
 173.039   27.195   92.388     11398.68
 162.147   48.307  270.843     11248.80
 164.502  139.146   47.093     10993.61
 146.024  146.956  207.989     10943.96
 357.190   40.019  188.022     10872.08
 167.105   27.361   62.337     10778.55
 175.987   44.017  122.245     10754.30
 172.807   32.482  248.327     10750.84
 178.687   88.322  275.354     10741.31
   3.000   75.437  148.379     10722.55
  13.915   94.903  152.221     10652.98
  12.274   20.000  288.137     10567.24
 358.878   32.217  154.097     10549.63
 179.782  150.720  192.222     10541.26
   5.268  147.768   11.131     10510.37
 177.661   93.622  279.167     10464.18
   3.583   59.331  175.688     10374.12
 357.230   84.622  158.360     10317.83
 182.289   29.070  103.595     10244.21
 331.615  150.418   25.207     10226.89
 188.792  146.751  178.016     10189.65
   0.325   90.869  160.560     10071.88
  12.993  161.676  297.259      9994.22
 176.015   29.651  105.936      9988.43
 178.133  150.429  183.306      9892.61
 358.460   91.136  120.823      9881.93
 359.934   34.299  255.546      9872.69
 158.471   36.477   98.157      9827.66
 200.297   37.022   61.528      9781.76
 149.468   44.800  356.042      9678.70
  14.565   79.308  154.311      9650.12
 167.101   31.894   95.789      9523.68
  13.313  138.095  344.965      9472.59
  21.918  146.575  334.203      9398.97
 126.665   24.743   48.252      9186.08
 165.478   26.864  107.447      9071.62
 317.741  143.284  143.787      9050.83
  10.678  157.676  308.096      9041.31
   5.461   37.257  181.409      9016.19
 171.880   50.030  286.097      9004.93
   8.216   22.730  186.222      8955.86
 151.740  144.940   27.931      8924.39
 154.022  142.377  218.162      8913.13
 186.551   93.319   16.393      8896.10
 193.334   39.644  104.304      8877.91
 340.461   33.176  326.110      8851.65
 353.912   33.657  165.772      8822.20
 147.504   27.031   99.255      8814.41
 167.371  135.551  353.227      8757.25
   3.402  167.519  264.592      8539.01
   5.018   29.392  152.419      8489.65
 198.227   97.909  267.671      8479.25
   3.045   79.448  103.843      8458.47
 164.406  142.317  241.389      8451.54
 172.131  156.784  185.123      8440.72
 322.984  151.230  263.200      8299.12
 345.489  139.325  335.803      8253.22
 172.133  149.656  356.991      8077.42
 148.007   85.988  274.363      7993.41
 199.749   28.767   93.161      7980.42
 181.294  148.394  231.234      7933.66
  39.372   21.476  139.377      7860.91
   8.655  151.031  352.753      7851.96
 175.929   83.115    5.572      7840.13
 202.328   26.191   78.967      7825.41
 354.974   31.642  337.068      7797.69
 174.491   23.789   62.474      7731.87
 168.490   29.362  337.206      7713.69
 192.927  128.683  242.595      7675.58
 174.643   27.354  102.275      7675.01
   3.183   70.930  164.728      7641.81
 339.857   26.053  198.937      7640.94
  24.393  139.319  129.449      7543.23
 359.259  147.642  323.976      7480.73
 184.560   38.088   54.660      7453.01
 176.488  146.010  231.514      7432.23
 189.816   24.837  101.018      7280.68
 339.530   31.808  233.000      7245.17
 191.985   33.565   88.516      7237.37
  14.766   96.336  147.325      7235.64
 336.012  148.699  293.550      7184.55
 324.703  151.380  264.792      7149.04
 357.073  112.836  108.151      7046.85
 191.097   27.107   54.992      7028.66
 187.536   32.896  105.019      7003.55
 166.229   39.291  303.069      6989.69
 359.307  103.630  135.219      6959.81
 145.920  146.419   28.388      6919.54
 178.258   88.909  274.613      6881.44
 166.405   27.240   16.003      6859.79
 219.573  157.005  225.911      6828.61
  22.137  137.031  135.306      6822.55
  23.023   32.462  314.111      6784.44
 350.425  150.894  329.515      6752.40
 321.732   25.204  346.811      6750.67
 140.996   30.608  281.274      6668.40
 183.912   38.344  115.253      6594.06
 269.826  143.761  265.478      6553.21
 153.366  131.903  352.580      6495.19
  42.411  157.242  314.647      6424.18
 339.894   26.443  333.412      6360.09
 354.059  141.847  291.816      6360.09
 344.364  154.205  292.830      6357.49
 237.786  153.376    9.546      6346.38
 317.805   21.173  345.094      6262.52
  24.252   43.112  321.473      6262.23
   1.023   36.080  353.248      6237.98
 307.755  151.455  299.515      6190.35
 199.546  142.592  204.049      6147.05
 181.736  132.175  223.539      6035.33
 159.268  156.292  358.938      6018.88
 351.289   31.623  201.704      5997.23
 165.794   41.216   94.570      5987.70
 343.925   38.947  183.581      5979.04
 358.908   90.392  154.393      5953.06
 181.211   40.618   66.380      5925.35
 346.692   35.569  147.751      5905.72
 210.831   34.582   95.323      5791.98
 306.340  137.199  292.420      5753.87
 168.404   44.848   62.879      5744.35
 200.802   20.199   52.174      5638.69
 174.117   73.443  355.623      5638.55
 214.475   28.977   52.364      5632.63
   1.714   94.576  138.114      5632.63
 326.029   37.938  182.823      5601.45
 210.868  152.033  213.266      5598.85
 198.928   27.872  103.602      5555.55
 359.606   35.346  176.095      5546.89
 199.604   84.288  316.410      5546.03
 177.605   92.128  320.318      5544.29
 218.745   25.895   56.179      5509.65
 175.234   27.186  114.149      5499.26
   4.635   75.266  158.606      5489.73
   8.146   34.752  173.956      5488.87
 355.140   97.090   96.784      5481.07
 179.032   31.578   85.247      5442.97
 187.052  107.915   25.301      5376.29
 164.533   38.213   72.149      5374.55
 173.706   40.127   72.683      5321.73
 216.755  154.510  263.992      5305.99
 179.429  143.365  190.074      5262.84
 354.996  128.545  304.688      5244.65
 359.810   62.924  134.505      5198.75
   8.037   25.224  228.010      5157.18
 204.356   37.261   40.684      5144.19
   5.601   31.215  314.547      5129.47
 183.218   82.500  270.024      5126.00
 308.980   16.648  359.889      5110.42
 112.091   30.449   47.905      5097.43
 181.066   93.502  252.272      5074.69
 350.300   31.782  313.748      5055.86
 178.754   90.847  276.259      4983.98
 166.219   40.642  109.331      4936.34
 354.043  152.421  343.466      4897.59
 346.926   32.154   37.084      4868.79
 180.536  145.097  245.111      4844.55
 325.868   33.641   31.707      4797.78
 333.676  135.275  316.298      4772.95
 183.594   82.718  259.894      4764.01
 178.690   24.069   78.726      4737.16
 187.778  145.762   65.611      4726.77
 164.636   25.437  127.293      4712.91
 345.707   91.244  157.125      4692.13
 347.312  162.625  200.919      4645.36
 215.955   32.899   32.716      4600.33
 183.332   42.829  358.994      4516.32
 185.034   32.266   77.336      4503.33
   7.496  150.466  103.911      4460.18
  16.074   91.845  136.276      4414.42
  28.832   22.423  185.003      4413.27
 117.225  163.421  318.805      4405.47
 358.835   29.662  175.660      4395.94
 351.705   25.003  226.976      4395.94
 185.912   98.094   15.712      4391.61
 174.330   27.710   16.213      4375.16
   1.885   31.799  321.369      4367.37
 212.809  161.233  227.179      4359.57
  44.581    8.610  285.874      4353.51
 339.518   32.000  172.815      4339.65
 166.235   30.411   98.497      4314.54
 186.229  148.271  232.806      4211.26
 344.144  161.143  357.902      4195.89
 198.425   27.410  103.135      4194.16
 183.642   78.893   14.567      4179.44
   3.101   85.678  151.186      4169.91
 172.822   34.550  128.430      4168.18
  21.359  151.888  319.727      4161.25
 353.330   30.640  181.648      4125.74
 168.467   85.696  280.527      4111.04
 327.317   98.392  150.840      4108.42
 209.087  160.217  246.027      4097.17
 182.917   32.472   97.004      4088.94
  13.796  147.465  334.185      4085.04
 147.664  152.806  194.583      4051.27
 348.492  127.191   71.114      4034.38
 202.373  144.481  203.755      4027.02
 172.278   43.999  252.096      3985.74
 154.371  140.701  217.831      3983.72
 177.510  146.571  232.902      3981.98
 349.107   31.924  332.834      3974.19
 181.045   25.609  119.278      3973.32
 168.265  129.030  232.530      3965.53
 202.068   88.551   17.767      3955.14
  31.007   16.668  290.622      3945.47
 323.919  151.460  323.737      3923.96
 322.468   39.072  191.498      3923.96
 167.439   26.721  134.902      3905.77
 163.557   25.419   68.242      3895.38
  17.839  145.220   60.838      3887.59
 141.934  154.376   13.394      3879.36
 155.085  148.024  223.549      3864.21
   8.301   41.696  184.649      3859.88
 182.800  145.533   39.054      3857.28
 158.018  151.784   40.122      3846.02
 184.621  134.504  229.371      3843.28
 344.593  156.703  304.093      3840.82
   4.070   90.221  132.101      3817.01
 175.344  142.483   74.975      3815.92
 180.160   90.289  251.578      3813.98
 333.541  139.936  292.866      3808.78
 325.142  140.100  107.410      3785.18
 291.134  165.111   64.880      3759.42
  23.206  144.832   78.949      3742.96
 206.774   23.962   40.892      3739.50
 144.034   40.250   14.406      3736.03
 195.334   29.298  278.998      3736.03
 187.979  141.116   83.483      3732.93
   9.039  151.781  353.807      3716.98
   4.562  148.306  325.304      3703.99
 183.512   99.427  196.150      3700.53
  22.284   91.071  102.314      3697.06
 161.591   23.494  132.475      3680.61
  18.888   22.356  285.472      3662.42
 217.917   24.795   90.822      3657.23
   5.915  147.794  343.651      3648.56
 339.416  152.789  340.044      3639.04
   0.522   92.951  159.746      3632.30
 190.309   39.163   33.644      3616.96
 154.125   45.131  101.985      3613.06
  80.445   19.805  152.220      3604.69
 141.654  154.669   73.002      3603.53
 344.109   27.281   24.208      3574.95
 204.155  153.916  182.001      3572.35
 350.157  150.159  278.558      3568.89
 337.046   25.877  216.599      3533.38
 344.049   17.888  332.828      3527.32
 178.354   36.558   55.888      3520.25
  19.203   54.529  136.265      3507.40
   2.555  158.976  257.344      3505.96
 358.669   29.562  296.014      3504.80
 346.644  148.638  345.235      3445.92
   2.038  147.319   74.028      3441.56
 177.129  151.780  178.845      3437.25
 342.734  155.502  274.853      3423.40
 116.713  151.768   20.964      3410.41
   1.354  139.165  341.334      3406.94
 327.792   32.776  159.879      3391.36
 168.059  157.353  229.702      3354.98
  13.734  154.421   87.967      3348.92
 249.549  143.235  262.386      3304.75
 182.688   86.622  251.066      3284.83
   9.620  152.652  319.104      3279.64
 229.018  161.500  221.806      3279.57
 202.306   89.016   17.405      3254.52
  35.284   18.504  297.145      3204.29
 163.818   24.701   84.304      3176.58
 181.258   38.662   73.794      3153.20
 346.600   33.782  182.548      3141.94
 356.504  141.836    2.403      3112.93
 337.610   95.763  109.525      3074.39
 339.650  141.404  284.991      3060.53
 181.701   25.937  106.056      3045.81
   0.879  136.580  300.914      3034.26
 349.854  152.566    0.459      3020.70
   6.666  152.862  304.316      2999.05
  34.292  156.503  329.307      2998.18
 352.443   31.004  317.519      2996.45
 205.561   26.083   79.928      2996.45
 331.483   32.642  258.457      2987.79
 156.754   32.071  282.625      2973.93
  49.365   18.527  257.233      2973.93
 348.614   32.064  175.861      2965.27
 180.312  111.866  353.858      2948.82
 173.921   84.700   23.861      2930.63
 168.395   22.459  104.840      2927.31
 163.216   24.484   85.018      2926.30
 200.537   27.753   41.929      2920.24
 348.603   39.172  170.789      2913.31
 181.810   28.661  111.806      2911.58
 347.167  143.454  111.993      2903.78
 203.941  143.156  255.738      2903.78
 181.455   87.880  258.536      2865.68
 150.102   31.215   57.612      2863.08
  11.000   95.088  137.730      2850.96
  16.423  149.262  339.517      2777.34
 189.745   90.574  230.967      2773.88
   1.530   94.768  137.566      2747.90
 346.849  142.762  351.900      2713.26
 171.435   31.981  291.801      2698.54
 171.391   37.401   58.567      2693.34
  12.825  152.873    6.694      2678.62
 228.838  161.615  222.102      2650.04
 147.379   81.482  329.257      2648.31
 331.450   34.929   32.392      2643.11
   4.623   83.794  147.233      2612.80
  55.991    4.602  121.583      2603.27
  16.081   35.619  172.143      2595.48
   3.045   83.862  137.961      2593.75
  34.602  151.493    7.730      2592.01
 331.353  159.873  289.904      2573.83
  36.090   36.879  148.016      2535.72
 172.857   31.864   68.421      2533.99
  10.413  134.637  314.413      2519.27
 357.780   41.536  159.849      2510.75
 184.039   57.081   77.156      2497.62
 182.665   89.045   24.129      2493.29
 323.817   38.403  190.115      2479.43
 312.649   28.792  345.968      2434.40
 168.223   90.489  259.133      2420.54
 323.549  148.447  274.873      2411.01
 199.653   27.038  283.180      2390.09
 163.107   78.170  286.008      2384.17
   2.248   32.876  143.223      2372.04
 327.497   86.653  101.110      2356.60
 352.837   70.223  160.453      2344.33
 337.740   29.503  200.710      2335.67
 166.039   89.080  201.858      2326.29
 350.911   31.836   14.254      2305.36
 359.937   33.328  153.652      2301.90
  11.406   79.931  148.459      2281.11
 195.961   35.387   94.816      2281.11
 352.711  152.351  302.985      2244.74
 326.611   36.890  181.507      2236.94
 148.536   89.760  344.452      2236.08
  26.521   80.542  135.519      2223.09
 145.139   34.451   73.500      2222.22
 176.525  146.769  180.205      2213.56
 348.756   39.204  313.060      2210.96
 219.281   87.406  252.732      2180.80
  20.100  142.511  316.719      2174.59
 331.444  156.582  294.476      2157.27
   9.769   85.986  148.896      2147.74
 182.195  148.278   39.084      2146.01
 357.700  103.245  157.107      2144.28
 240.833   83.703   54.129      2143.41
 168.123   87.222  265.115      2142.98
 218.938   87.430   72.915      2137.35
   9.603   47.236  335.567      2129.56
 183.047   99.370  199.106      2112.24
 359.540  147.301  305.218      2101.84
 181.667   28.692   97.318      2094.05
 358.572  148.346  263.943      2090.30
 327.317   97.812  150.172      2082.79
 174.985   37.761  119.272      2078.46
  50.475   26.289  244.927      2068.07
 152.411   30.551   85.443      2063.74
  19.801   88.729  145.208      2062.87
 310.143  152.545  267.177      2051.61
 328.814   94.212   68.110      2051.61
 345.530   84.295  146.459      2045.55
 181.179   41.100   79.969      2041.22
 196.111   43.135   36.788      2033.43
 180.112   93.265   67.680      1999.65
 339.674   24.526  191.693      1981.47
   3.358   30.769  306.814      1978.87
 163.387   18.804  302.919      1978.00
 157.578   36.606   50.815      1976.27
 157.525   22.091   67.792      1965.01
  17.572   94.697  135.051      1940.76
 229.662   27.389   21.690      1932.97
 135.281  143.242  358.695      1932.97
 198.805   27.685  103.953      1917.67
 156.699   26.572   93.945      1915.65
 352.400   90.967  146.387      1913.92
   9.880   83.578  151.352      1903.52
 343.953   17.727  333.114      1902.66
 156.703   90.831   22.788      1900.49
 327.200   98.012  150.044      1899.19
 336.113   89.956  130.871      1895.73
 214.474   91.752  247.328      1887.94
 343.052  101.061  135.340      1886.20
 196.317   29.161   94.216      1881.87
 357.402  155.959  341.130      1870.90
 223.565   96.164   45.110      1858.49
 184.635  105.199  260.890      1855.89
 351.513   96.607  151.386      1855.89
 201.111   27.187  103.386      1848.10
 351.778   31.622  201.058      1848.10
 196.503  140.140  201.084      1847.38
  22.202   99.135  101.615      1840.30
 175.395   76.572  338.492      1836.84
 219.084   88.263   12.364      1834.24
 195.191   39.269   52.646      1820.39
 112.400  105.914  345.768      1793.54
 174.033   36.873  105.141      1779.68
  19.937  159.838  270.339      1774.49
  16.893  160.275  266.258      1756.30
  11.737   98.143  149.670      1751.97
 326.151   33.869  211.007      1747.64
 273.472   22.997   22.696      1744.18
   3.362   77.494  150.879      1741.58
  16.224  155.571  301.400      1738.11
 336.070  157.612  350.048      1735.51
 188.742   24.768   42.694      1729.45
 180.361   29.159   98.602      1720.79
  28.793  144.906   16.473      1719.93
 332.209  160.105  170.389      1714.73
 358.423  148.285  318.762      1706.07
 343.932  149.625  296.080      1696.54
 180.899   43.241  117.632      1679.08
   9.528   86.060  149.170      1669.70
 180.349   85.549  258.261      1667.10
  60.304  102.231  182.017      1665.70
 334.529  149.697  302.707      1665.51
 322.338  152.905  263.205      1662.70
 104.407   29.238  174.456      1661.04
 216.312   32.928   93.482      1653.24
 329.293   94.785  130.730      1640.25
  18.185   99.754  102.000      1635.92
 356.193   32.846  359.842      1634.19
 277.722   77.626  181.491      1616.00
 188.853   46.387   69.750      1606.48
 165.853  162.150  329.604      1606.48
 180.285   31.614   75.369      1603.01
 194.204  155.259  256.300      1594.35
 188.312   37.932   85.052      1592.62
 356.612  158.162  339.905      1587.42
 187.645  151.665  201.393      1587.42
  17.204   75.865  125.482      1587.42
 350.701  149.103  301.213      1583.09
 180.361  144.242   64.946      1580.50
 179.576   84.242  279.703      1578.76
 181.138   39.123   73.621      1569.24
 151.393   29.719   95.581      1563.18
   9.812   38.114  183.493      1557.98
 166.849  108.604  219.424      1557.98
   9.194   34.413  168.591      1548.89
  63.980  110.800  316.920      1546.29
   0.856   77.107  121.292      1537.20
  78.049    0.760  196.637      1536.33
 152.670   98.189  259.411      1532.86
 133.894  142.225  188.517      1527.67
   9.194   44.707  156.704      1525.07
 192.245  100.795  258.164      1513.09
 206.637   90.901  228.287      1507.75
  13.333  151.791  307.888      1495.63
 177.046   77.808   23.268      1491.30
 169.871   32.674   71.746      1490.43
  18.609  145.616  302.603      1484.37
 149.878   92.369  273.195      1480.04
 182.573   92.693   41.648      1477.44
  20.496  153.219  317.211      1476.50
   2.793   98.297  106.916      1457.52
 195.409  154.978  215.669      1457.09
 166.406   46.355  303.448      1455.79
  49.977   19.463  129.891      1454.06
 353.417  152.524  303.454      1447.99
   2.419   35.212  292.176      1438.47
 348.567   31.152  151.064      1422.01
  20.883  151.835  318.522      1414.22
 329.340  104.617  139.238      1399.50
 194.933  154.559  197.213      1390.84
 159.678   45.447   90.494      1389.10
 323.635   92.159  104.647      1386.51
 183.694   81.943  262.384      1385.06
 351.924  152.123  276.069      1376.98
 351.454  143.018  309.357      1371.78
 281.541   78.146  200.658      1366.88
 117.136   76.702  238.543      1363.12
 168.553   86.799  325.693      1361.39
 189.479   78.810  251.442      1351.87
 280.182   31.472   39.020      1349.27
 190.933   91.788  267.052      1349.27
  34.330   88.156  112.364      1342.34
 218.783   87.861   55.146      1336.28
 148.157   87.859  223.308      1331.95
 353.577  152.900  223.358      1328.48
 130.382  163.851    1.933      1324.30
 341.969   26.020  196.592      1318.09
 342.871  148.770  295.146      1292.98
 198.340   19.608   92.236      1292.11
 341.449  147.414  297.439      1280.85
 271.228  111.363   59.333      1278.25
 259.541   33.070   35.018      1275.66
 227.981   87.136  230.682      1273.06
 302.685  153.575  281.144      1273.06
 194.109  155.772  196.093      1268.73
 300.994   98.801   73.758      1267.86
 171.111  155.105   73.147      1267.00
  30.255   88.034  144.680      1257.47
 172.293   38.934   70.285      1249.67
 175.029  142.724  174.695      1241.88
 330.396   12.154  205.456      1234.09
 158.506   88.738  268.039      1232.35
 322.301   95.040   75.777      1232.35
 336.975   89.143  157.195      1231.49
 331.226  158.811  290.696      1231.49
 285.875   87.608  237.140      1229.61
 218.771   88.006  235.365      1229.13
 200.686  143.983   80.281      1228.89
  12.825  152.367  307.222      1216.77
 349.513   36.718  176.525      1212.44
 332.701   83.225  160.364      1212.44
 262.449   75.883   56.842      1211.57
 166.992  136.341  352.174      1196.85
   3.849  138.766  359.197      1181.26
 351.593  142.086  241.947      1174.33
  54.815   88.821  319.665      1170.87
 266.003  159.716  259.499      1170.00
  37.460   23.069  151.190      1167.40
 196.937   19.386   93.615      1152.68
 280.198   15.752    0.523      1149.22
 179.166   31.779   77.265      1147.48
 350.516   35.239  355.468      1146.91
 351.079  157.395  271.145      1145.75
 221.120  157.758    2.406      1139.69
 216.180   93.391   65.463      1135.36
 274.225  145.076  273.585      1134.49
 175.088  148.595  213.636      1127.57
 313.695   93.815  183.413      1126.70
 202.208   20.695   51.043      1124.10
 203.589   28.130   98.527      1121.50
 341.088   83.632  113.241      1117.17
 115.424   79.467  297.468      1116.31
 127.486   94.276  219.719      1114.57
   3.868  143.082    8.972      1113.71
 125.364   98.059  301.824      1113.71
  67.283   23.070  233.361      1113.71
 358.214  136.410   89.841      1109.38
 349.633  151.081  356.025      1100.72
 139.090   95.628  267.270      1099.85
 295.783  100.514  242.261      1098.12
 183.782  124.377  250.440      1098.12
  19.868   89.521  145.019      1095.52
  46.072   91.302  127.314      1086.86
 252.550   22.682   74.869      1086.00
 189.517   86.917  269.983      1079.07
 192.398   35.438  101.045      1070.41
 312.774   83.512  133.376      1067.81
 200.762   28.400  341.873      1066.08
  35.557  142.526  313.263      1063.48
   1.360   31.073  189.296      1056.55
 183.928  155.582  202.107      1053.95
 101.630   93.767  239.207      1049.62
 161.775   48.451  271.443      1037.60
 169.844  153.878  335.969      1036.92
 223.083   19.687   16.186      1032.88
 354.361   96.200  145.439      1025.37
  44.757   79.805  300.390      1023.64
 178.819  157.863  314.523      1021.04
 190.309   32.505  328.827      1020.18
 153.758   32.860   62.921      1019.31
 113.182   15.275   66.636      1011.52
  10.307   31.653  183.245      1010.94
  34.818   91.904  149.467      1001.99
 341.908  102.190  111.578       995.93
 206.342   93.768  230.289       992.47
 262.835   75.802   58.274       988.13
  54.064   82.245  299.717       988.13
 120.763   17.010   56.669       983.80
 203.408   43.014   65.483       981.21
 182.152  155.983   79.848       980.34
  33.497   89.921  139.779       977.74
 196.173   46.942   34.651       976.88
  93.931  110.695  308.599       974.28
 172.529  148.014   30.150       973.41
   6.956   32.599  345.506       969.95
  26.147   86.140  129.693       968.79
 135.226   84.171  246.926       964.75
 150.736   17.285  103.386       960.42
   7.355  152.610  316.740       958.11
 219.126   88.501   13.509       954.36
  39.102   91.981  107.186       950.03
 168.452  147.085    5.413       950.03
 152.975   95.199  260.270       943.97
 137.925   85.559  262.847       934.44
 215.941   90.502   11.032       929.25
 108.853  114.001  309.904       924.05
 311.534   82.193   54.456       924.05
 109.375   32.429   51.606       922.32
  83.260  105.424    2.180       921.45
 171.347   33.925   73.332       919.72
 218.955   88.522   73.595       919.72
 169.781   48.732  260.248       918.85
 348.736   43.295  184.509       910.19
 328.876   88.600  127.987       908.46
 107.804   78.798  301.090       907.59
 331.738  148.816  276.643       906.73
 196.236   86.132  261.424       905.86
 251.477  104.457   52.207       902.40
 186.212   26.139   46.355       900.67
  20.323   90.656  134.643       900.67
  95.586  162.850   46.701       893.45
 350.955   32.191  322.214       891.14
 357.726   41.905  199.549       889.41
 345.753   84.739  153.165       888.54
  93.002   71.831  124.491       886.81
  25.460   37.500  282.607       881.61
 167.281   95.583  262.494       879.88
 336.121  147.755  316.658       877.28
  26.102   75.467  131.667       873.82
 251.679  101.488   77.712       870.36
 310.044   74.997   39.450       866.89
 191.851   34.918   66.223       861.70
 187.500  148.614  251.059       854.77
  39.732  156.502   12.616       852.17
  96.339  157.047  339.828       849.57
 340.112  155.953  286.088       846.97
 228.814   97.068  228.708       844.37
 149.690   92.732  272.921       843.51
  46.937  169.810  344.577       842.64
 177.465  148.145  232.340       840.04
 349.929  162.047  263.512       839.18
 112.132  105.340  285.345       838.31
 159.726   87.832  272.836       836.58
 251.935   18.286   50.020       833.12
  10.884  139.166  355.325       831.41
 153.226   96.689  318.791       830.52
  21.391  159.258    9.310       827.05
 315.707   93.306  173.422       825.32
 209.781   84.320   25.185       809.73
 173.399  138.074  189.020       808.87
  84.991   67.556  309.784       801.94
 192.157   49.002   75.296       801.07
 345.528   99.049  133.345       799.34
 225.037  100.084  358.896       798.48
 184.226  144.250  250.295       797.61
 332.807   99.600  135.404       795.01
 347.865   84.117  156.953       792.41
 192.798   33.637   87.590       790.68
 169.573   33.342  311.714       786.35
 205.772   90.674   75.946       786.35
 154.089   37.919   45.208       785.34
 356.596   29.003  182.313       784.33
 189.790   44.969   46.345       783.03
 185.252   36.467  118.057       778.56
 180.642   88.427   20.134       775.96
 181.342   86.428  256.782       774.23
 259.642   32.894   35.361       773.36
 314.226   21.723  209.954       770.19
 149.497   84.708  228.297       769.03
   7.457   85.590  151.819       762.97
 263.244   74.168   57.691       762.37
  40.348   91.560  105.971       762.10
 209.084   95.066   52.722       756.91
 336.373   97.322  319.615       754.31
 206.259  123.555  204.041       740.45
 160.714  146.273  333.431       740.45
 209.856   83.842  264.773       732.66
   0.656   94.479  161.617       732.66
 152.918   97.153  259.996       727.46
 121.450   86.109  247.201       724.86
 190.705   98.341  269.311       724.86
 146.555   26.541  100.446       720.53
 180.451  148.220  226.634       719.67
 342.181   28.097  194.937       719.67
  42.211   89.328   98.554       717.94
   0.039   68.482  161.598       716.20
 184.015   94.313  269.725       711.87
 147.753   58.840  231.418       709.27
  34.461   88.277  118.634       704.08
 203.255   82.237  256.418       702.35
 191.372  162.220  191.036       701.48
 288.176   85.859  249.933       700.61
 323.467   92.028  104.423       698.88
 191.771  125.514   58.142       698.02
 183.470  104.498   31.262       695.42
 331.584   86.371  155.808       694.55
 122.435   26.661   79.183       692.82
 345.344  162.721  258.323       692.82
 171.370   98.807  229.878       692.82
  39.942   85.792  124.232       691.95
 240.102   91.942   75.208       684.16
 274.485  145.687  273.937       684.16
 272.393   90.597   58.207       683.73
 175.356  149.786  240.502       682.43
 199.555   89.981  215.337       681.56
 251.429  104.702  111.749       681.56
 339.418   26.629  197.012       678.96
  33.589   90.700  139.510       678.10
 168.548  162.591   91.148       678.10
 266.271   92.720   59.185       676.37
 169.564   96.246  345.603       676.37
 165.024   30.757  101.040       676.37
 329.479   89.648  109.487       675.50
 166.387   29.931  122.216       675.50
 329.077   95.094  128.800       674.63
   7.074   28.875  218.989       672.90
  43.365  100.033  125.037       672.90
 215.429   84.352  289.425       672.90
 247.186   81.017   62.739       672.28
 164.513   78.685  211.299       672.04
 262.631  156.766  266.898       670.30
 255.671  160.931  256.748       669.44
 354.932  148.805  340.230       669.44
   7.957   82.682  160.794       668.57
 128.209   93.002  218.294       667.71
 174.168   27.865  341.602       667.71
 156.437  150.725   37.152       666.84
   4.656   24.686  337.085       665.97
 148.204   88.126  223.032       663.38
 172.193  146.775  348.196       662.51
 331.841   34.969  332.600       660.78
 208.743   95.482   52.753       659.05
 190.996   33.706   29.670       656.45
  15.414  149.586   16.816       653.85
  17.532   95.016  134.645       652.12
  83.211  140.407  310.727       648.65
  97.505  105.258  298.139       641.72
  88.636   11.092  150.736       641.72
 149.438   73.905  339.984       634.80
 260.299  110.851   52.128       633.06
 359.953  147.924  324.521       633.06
 170.982   54.944   80.533       631.19
 235.072  101.577   52.684       629.60
 326.326  106.346  134.488       628.73
 160.233   86.917  255.508       628.73
 179.634   84.061  244.973       626.14
 114.916   88.485  246.812       624.40
   4.440   82.339  150.067       622.60
 110.113  102.265  301.552       620.94
   2.143   69.957  108.228       620.07
 329.651   95.346  131.361       620.07
 115.006   88.385  306.948       618.34
 283.972  113.008  250.768       616.61
 314.094  158.098  281.016       615.74
 206.932   93.172  230.642       614.01
 190.520  147.368  198.564       610.55
  10.844   38.600  182.021       610.55
  73.142  104.563  312.375       610.26
 250.984   65.454   62.446       608.82
 318.379   93.180  132.001       602.90
 158.294   76.685  327.899       602.75
 210.179   87.061   69.099       602.75
  33.173   77.078  319.695       601.89
  18.726  153.613  317.264       601.02
 288.004  100.687  297.299       600.16
 173.524   38.599    9.586       600.16
  16.417   91.999  117.391       600.16
  81.969  156.371  325.017       598.42
 169.417  143.517  228.528       596.84
  42.112   91.466  151.865       596.69
  33.575   89.423  139.888       596.69
  45.123   79.378  119.056       595.83
 343.863   94.905  135.153       595.83
 187.611   80.679   43.029       594.09
  82.547  103.244    2.396       590.63
 334.899  159.031  292.976       590.63
 332.359   27.317  207.677       588.18
 344.033   17.302  182.335       588.03
  10.861  133.542  330.649       587.17
 342.104   28.568   14.876       585.43
 243.278  162.600  241.789       584.57
 218.840   97.599  211.464       584.57
   8.744   80.874  139.765       583.70
  25.902   75.206  132.046       581.97
 329.342   90.992  135.539       581.97
 124.200  163.718   68.639       579.37
 154.535  101.715  257.773       578.50
 326.982   96.401  107.504       578.50
  31.832  100.211  129.745       577.64
  78.221  119.542  358.731       575.91
 334.156   32.580  346.162       575.91
 148.790  151.933   15.712       574.17
 298.093   96.068   52.094       572.44
 158.580   82.264  222.143       571.58
 192.587   10.227  349.103       568.11
 313.376   81.484  110.770       565.51
   5.739  171.303  232.989       562.92
 153.735   91.016  264.072       562.05
  25.436   83.905  301.564       562.05
 163.739   83.918  333.704       559.45
 350.257   30.356  134.348       558.59
 164.079   30.859   63.746       555.99
 353.247  153.789  222.396       555.41
 184.624   92.213  275.471       554.26
 103.055   73.289  295.793       551.66
  41.081   96.402  142.515       547.33
  26.222   36.051  162.459       547.33
 206.686   94.291  228.689       545.60
  26.721   89.099  131.650       542.13
  16.542  159.634  326.347       541.27
 156.625   94.569  273.226       540.40
 333.224   34.542  330.090       536.94
 140.951   27.182  280.065       532.61
 165.001  157.063  227.753       532.61
 301.504   94.671   53.360       531.74
 187.054   80.918   43.559       531.74
 151.110   42.028  253.993       530.01
  22.638   36.599  144.149       528.28
 288.895   26.715   22.436       526.54
 201.613  144.428   34.944       520.48
  97.640  148.224  336.645       517.88
 354.918   93.045  147.647       517.02
 199.759  106.213  244.766       517.02
 201.142   83.770   83.607       516.15
  23.086   93.160  105.540       516.15
 333.302   85.985  117.343       511.82
 322.617   88.103  190.927       511.82
 277.251   21.344   23.694       510.95
 262.313  173.281   83.695       510.09
 201.664   77.746  355.999       508.36
  64.407   75.743  292.860       508.36
   9.849   79.470  130.189       504.89
 208.465  149.560  200.840       504.89
 353.490  144.724  293.299       504.03
 349.993  145.212  336.066       503.16
  41.398   99.489  140.764       502.44
 229.084   27.592   83.037       502.29
  19.694  102.257  113.408       500.56
 101.391  100.910  339.208       498.83
  26.414   36.945  162.267       495.37
 214.855   88.494   30.312       494.50
  76.491   61.891  299.822       491.90
 332.771   86.090  118.104       491.04
 152.554   97.561  256.152       491.04
 221.945   82.968  238.370       491.04
 162.167   89.980  263.611       490.17
 119.505  161.296  297.005       486.71
  11.146   34.810  269.934       484.97
 109.543  104.843  312.435       482.38
  36.939   81.453  111.883       482.38
 355.261   39.814  308.933       481.51
 322.967   92.923  105.617       480.64
   1.749   33.955  324.568       477.18
  38.168  100.621  337.622       475.45
 137.065   98.347  228.990       475.45
 109.111   65.658  299.853       474.58
 168.393   88.196  282.885       473.14
 213.982  104.404  223.530       472.85
 215.141   84.115   50.046       472.85
  19.755  160.290  270.343       470.25
 227.733   78.582   54.629       469.39
   1.034   75.383  143.548       469.39
  28.525  101.344  333.516       469.39
 218.474   87.885   72.035       469.39
  15.893   21.923  166.962       468.52
 342.235   85.224  154.341       468.09
 355.067   88.312  149.057       467.80
  81.366  145.971   24.512       466.79
  49.744  108.859  131.562       466.79
 274.262  102.530   66.308       466.21
 292.932  149.228  283.770       465.92
  21.575   88.597  140.033       465.92
  66.954   73.294  122.020       464.19
  97.810   78.497  300.761       463.32
 226.959   78.756   58.894       460.73
 210.086   83.759   16.754       460.73
 314.154  155.897  318.509       460.44
   9.156   85.122  147.367       459.86
 217.297   98.973    8.043       459.86
 140.459   92.208  257.080       458.13
 333.448   30.296   30.520       455.53
 174.390   35.812   65.878       455.53
 181.677  143.595  190.913       454.66
 167.649  145.343  336.898       454.66
 188.545   32.288   68.968       453.80
 329.729   93.864  134.792       453.80
 342.760  155.713  274.578       451.56
 328.824   90.501  110.478       450.48
 146.076   75.952  253.286       450.33
  19.934   91.570  121.156       447.74
 343.715   39.852  194.096       446.87
 266.888   57.469  249.334       444.27
 261.296   33.766   35.750       444.27
 285.254  111.922  311.489       441.67
 282.907   97.313   50.337       441.67
  79.162   74.123  296.153       440.81
  62.125  116.577  306.941       439.94
 134.316  152.171  355.261       439.07
 339.685  150.564   41.204       438.21
 294.565  102.006  300.001       437.34
 358.875   89.140  142.145       437.34
 106.081  103.835  301.950       436.48
 344.089   92.955  124.446       436.48
 271.607  152.741  258.334       436.48
 164.355  152.404  214.937       434.74
 271.382  138.446  272.766       433.88
 103.299  152.070  326.016       433.88
 277.997   77.982  242.315       433.16
 351.640   58.901  161.313       433.01
 257.557   32.238   57.321       430.41
 172.085   84.252   37.121       430.41
 153.896   39.645  306.641       430.41
 161.584    4.674   19.643       429.55
  34.455  101.695  148.998       427.82
 188.443   90.900  347.582       427.82
  61.320  105.365  119.415       426.95
  14.929   80.419  146.866       423.49
 266.267  109.959   65.760       422.62
  25.349   70.227  172.208       421.75
 193.252  100.169  261.495       420.74
 325.908  104.323  106.656       420.02
  95.041  149.069  329.410       419.16
 219.723   89.552   66.153       418.29
 202.060   84.459   53.509       417.42
 354.109   23.499  180.044       416.56
 208.317   95.987  352.388       415.69
  33.408   89.620  139.624       414.83
  57.603   79.793  183.993       413.96
 205.861  155.742  189.663       413.38
 204.924  108.843  221.677       411.36
 158.772   81.970  342.179       409.63
 106.357   97.297  300.245       408.76
 283.048   63.715  173.152       407.90
  91.854   87.140  359.246       405.30
 202.013   94.859    6.633       404.43
 332.922   81.526  163.511       404.43
 200.772   94.472  230.805       404.43
 144.433  101.335  334.137       404.29
 134.787  158.200  211.134       404.15
 168.039   29.682   67.574       400.97
 301.274   97.591  129.176       400.97
 344.387  149.999   82.746       400.97
 203.840   84.682  260.555       400.10
   0.968  144.556  187.289       398.37
  38.510  100.018  337.232       394.04
 163.808   84.841  223.854       392.31
 145.454   26.501  275.136       390.58
 145.799   83.900  250.680       389.71
 331.509  159.622  290.064       387.98
 153.119   95.075  199.600       387.11
  10.677   26.295  336.724       387.11
 254.447   42.188   49.689       387.11
 329.519   95.257  102.403       386.25
 221.455  105.683   74.564       385.38
 337.955   95.952  138.195       385.38
 150.109   85.748  247.431       383.60
 311.842  155.887  316.080       382.78
  11.129   88.375  153.120       382.78
 327.681   87.713  126.780       382.78
 251.408  144.433  261.410       381.92
 325.747   92.708   96.348       381.05
 204.293   27.974  111.604       381.05
 136.421   75.002  287.591       381.05
 339.963   31.596  352.863       377.59
 156.004   37.302  293.223       377.59
 277.093   43.047   29.459       375.86
 286.663  147.475  289.506       375.86
 178.475   92.151  343.307       375.13
  79.292   73.773  296.091       374.12
  13.152   99.575  139.969       373.26
 289.003  148.259  291.218       372.39
 185.389   30.101   89.307       372.39
 209.512   91.089  352.600       369.79
  22.875   86.731  325.487       369.50
 349.502   25.111  203.735       368.93
  40.041   90.959  129.648       368.93
 207.565   79.622   57.972       368.93
   2.288   70.773  346.958       366.33
 359.111   30.363  169.083       365.46
  67.719   23.476  293.339       364.60
 184.246   37.560   55.160       363.73
 269.253  144.815  248.735       363.73
 237.720   24.954   28.202       363.73
 253.819  150.620  250.640       363.73
 108.757  113.331  309.307       361.13
 297.230   84.522   53.656       360.27
 128.585   94.477  242.442       360.27
 357.171   33.340  346.163       359.69
 194.193   93.839   15.060       358.53
 103.326  116.500    6.385       357.67
 101.640   89.695  316.607       357.67
 155.709  147.465  341.239       357.67
 254.368   64.252  249.359       356.80
 179.821  158.536  227.769       356.80
 156.537  106.954  231.464       355.94
   3.350   77.538  149.932       355.94
  92.640   61.184  358.288       355.65
 190.455   30.554   73.098       355.07
 227.484   84.417  235.613       354.20
 173.333   84.960  326.043       354.20
  30.108   87.021  144.621       353.34
 197.219   25.648  340.136       353.34
 217.888   97.707  274.119       352.47
 175.821   87.973  263.515       351.75
 197.228   80.100  258.313       350.74
 196.385   30.684   80.842       350.74
 302.030  103.143   43.258       350.72
 192.424   89.909  266.398       350.29
   0.889   86.500  108.107       349.87
 177.868  144.784   43.755       344.68
  83.762  148.123  333.561       344.68
  26.607   88.067  129.456       344.68
 107.757  153.695   36.194       342.95
 188.490   85.935  256.419       342.95
 158.747  151.354  194.834       342.51
  95.867  142.412  336.570       342.08
 260.391   99.071   55.083       341.50
 356.795  145.563   57.265       340.35
 170.956   50.627   55.378       338.62
   8.421   87.408  146.312       336.88
 152.291  143.071   25.317       335.58
 209.946   86.497    7.075       335.15
 341.148  161.782  293.952       333.42
  83.382  123.201  356.625       332.99
 112.399   90.553  325.060       332.55
  89.063   84.018  313.675       329.96
 105.398   75.071  293.817       329.96
 108.977  105.089  313.020       329.09
 144.455   29.160   95.515       329.09
 167.945   49.994   66.945       327.36
  76.259   17.117  123.081       326.06
  70.249   12.955  184.895       324.76
 272.090   29.481  225.193       323.89
 177.281   31.321  266.984       323.89
 323.097   92.129  177.650       323.03
 246.613   66.459  240.780       323.03
 275.295   83.048   51.576       323.03
 195.822   87.379  262.606       323.03
  35.989   73.410  139.287       320.43
  97.330  115.259    8.652       319.56
  96.201   83.631  307.263       319.56
  31.885  100.589  129.241       319.12
  25.335   84.761  121.405       317.83
  59.921  101.616  181.177       316.10
 317.399  108.536    6.563       315.23
 247.685  102.442  241.667       313.50
 174.359  146.638  229.873       313.50
 150.126   42.240  314.855       313.50
 166.422   79.752  317.844       311.77
 170.391  152.960  217.315       310.90
  14.717   89.395  134.057       310.04
  40.204   90.554  114.729       306.57
 347.918   94.062   93.737       305.71
 247.544  102.710   61.648       303.11
 161.221  119.059  345.370       300.51
 209.667  150.658  262.311       300.51
 167.436   86.089  266.223       299.64
  10.386   88.725  152.259       298.78
 159.122   39.268   64.653       297.05
   9.017  150.129  345.603       295.31
 266.597  111.402  207.086       294.45
 107.233   58.979  238.153       291.85
  62.078  141.075  358.302       291.85
  60.926   71.749  309.154       291.85
  62.449   95.167  181.480       290.12
  13.371   99.990  139.796       288.39
  20.713   21.773  283.720       287.52
 301.316  163.398  244.092       286.65
 117.395   82.532  300.674       286.65
  93.111  151.550  196.986       286.65
  83.115   19.084  102.838       285.79
 169.306   31.407  329.121       284.06
 303.423   80.945   51.348       284.06
 319.152   21.864  344.129       283.19
 179.770   32.884  116.200       282.32
 293.293  149.625  284.158       282.32
 290.539   80.052  307.804       282.32
 327.606   82.259  107.673       281.46
 113.937   65.986  309.010       280.59
 102.883   82.823  309.058       279.73
 223.675   20.423   75.206       278.86
 181.340   40.148   66.146       278.86
 243.150  105.089   66.183       278.86
 168.970  147.419  184.231       278.57
  75.377   74.906  301.747       277.42
  36.476   92.283  145.742       275.40
 336.884  150.495  277.950       274.53
 129.195   60.770    3.726       273.66
   8.091   95.518  139.272       271.07
  25.782   39.796  168.485       271.07
 216.397  159.077  228.210       270.20
 114.012   66.978  291.557       270.20
 307.673  108.237  122.101       270.20
 192.159   86.076  256.505       267.60
 218.125   33.262    3.898       267.60
 120.183   94.089  235.959       267.60
 153.936  149.984   28.866       266.74
 297.412   72.133  174.542       260.67
 206.681   82.840  249.180       260.67
 169.506   30.829  320.622       260.38
 275.744   37.978   24.053       259.95
 108.944   66.090  299.596       258.08
 335.409   89.696  129.612       258.08
 359.332   87.108  170.930       258.08
  82.071  146.514   32.655       258.08
 175.358   51.256   85.138       258.08
 218.946   88.898   71.975       258.08
 200.254   97.162   59.974       256.34
  14.774  132.838  323.944       255.48
 255.583  104.322   56.209       255.48
 357.791   30.420  343.290       255.48
 184.475  147.455  117.103       254.61
 227.356   82.624  235.910       254.18
 102.432   73.343  295.446       253.75
  31.195   76.489  132.784       253.75
 283.617   30.684   27.141       253.75
  84.912   72.430  355.692       252.88
 139.008   98.379  345.570       252.88
  29.969   91.464  100.715       252.01
 330.416   93.524  144.701       252.01
 227.089   84.266  235.749       252.01
 140.990   32.518  292.525       251.15
 288.830  114.594   59.376       251.15
  23.347   82.632  110.143       251.15
 319.848   80.222  143.708       250.28
 258.422   70.885   69.968       250.28
  64.338   76.280  292.908       248.98
 158.061   35.240   50.905       248.55
 336.727  157.696  291.687       248.55
 328.427   93.762  128.513       248.55
  30.286   93.010  110.664       247.68
 352.009  147.320  290.380       246.82
  98.036  101.849  357.775       246.82
 261.376  156.852  265.666       246.82
  71.518   75.520  307.392       245.09
 198.845   89.721   60.817       245.09
  81.533   43.479  280.165       245.09
  21.647   81.205  132.933       243.35
 227.230   78.711   59.185       243.35
 160.063   85.555  224.580       242.49
  74.855   74.095  303.434       242.49
 223.103   89.745  229.504       241.62
  30.561   87.135  143.807       241.62
  83.254  157.883   26.257       241.62
 147.189   96.180  251.593       237.29
 201.847   94.340    8.644       236.42
  30.676   90.068  127.603       235.56
  90.529   69.690  297.515       235.56
 329.926   94.603  100.487       233.83
 353.776   85.586  146.122       233.83
 213.544   98.257  232.468       232.96
 205.908   91.285  349.336       232.96
  29.771   46.781  125.533       230.36
 337.022   29.076  321.902       229.79
 334.072  149.448  303.033       229.50
   6.084  149.275  325.791       228.63
  43.180   87.569  157.891       228.05
  19.712   95.864  149.288       227.76
 261.065  103.712  244.090       227.76
 200.447   81.417   17.763       227.02
 194.353   30.654   83.851       226.90
 288.561  147.768  291.043       226.90
  49.593  108.558  131.752       226.90
 295.126  100.191  301.754       226.03
 108.278   94.707  289.299       226.03
   3.475  147.146  323.456       224.30
 108.648   66.190  301.389       223.43
  49.929  107.834  132.120       222.57
 285.363  121.214   60.143       222.57
  76.174  115.247  114.231       222.57
 291.113   86.251  189.760       221.70
 201.019   29.069  101.463       220.84
 158.055   85.221   12.130       220.11
 203.622   34.125   82.139       219.97
  78.355   83.999  349.686       219.97
 160.323   87.281  256.358       218.24
  21.374   84.685  109.926       218.24
 317.268   80.596  131.782       218.24
  48.512    5.281  129.040       218.24
 209.536   98.064   45.254       216.51
 299.485  153.510  230.031       215.64
 280.638   28.315  211.735       214.77
 179.649  146.671  108.184       213.91
 272.136  112.312  239.138       213.91
 284.685  121.220  243.717       213.04
  38.999   88.608  110.170       213.04
  27.176   89.725  132.280       213.04
 126.086   79.909  303.349       212.18
 252.323   72.812   54.972       212.18
 319.447   80.164  167.539       211.31
 196.568  148.486  195.278       211.31
 335.338   37.831   32.057       211.31
 258.206   99.363  241.500       210.44
 163.105   90.820  206.375       209.58
  19.217   97.970  135.291       208.71
 123.559  123.957  318.192       207.85
 328.395   91.161  111.638       207.85
 216.603   92.615   60.994       206.98
 196.917   98.046  267.298       206.98
 181.568   81.857  257.527       206.11
  58.344   34.186  152.058       205.25
 156.066   30.019   82.971       204.38
  21.890   74.990  130.351       204.38
   0.286   23.499  131.582       204.38
  12.242   76.056  147.718       204.38
 359.983  148.779  284.067       203.52
 116.959  129.809  313.723       202.65
  21.070  153.059   77.748       202.65
 177.500   31.905  276.861       201.93
 152.002   78.628  232.046       201.78
 318.509   96.693  120.615       200.05
  60.163  100.205  179.943       200.05
 124.790   87.009  325.845       199.19
 254.660  108.646  201.437       199.19
 135.473   97.515  258.594       198.32
  83.978   64.271  305.937       198.32
 228.451   85.998  234.877       197.45
 336.502   73.084  128.226       197.45
 342.251  155.913   48.340       197.45
 141.891   86.670  243.594       196.59
  20.790  150.658  319.441       195.72
  97.654  126.511  317.457       195.72
 131.421   63.906  297.379       195.72
 311.545   94.565   55.009       195.14
  22.910   85.677  136.585       194.86
 188.982   31.354  104.176       193.99
 254.700  120.124  103.478       193.12
 183.174   92.543  281.852       193.12
 275.267   82.868   51.258       193.12
 332.601   83.891  160.706       193.12
 250.043   73.296   67.192       193.12
 332.996   84.190  110.353       192.26
 163.018   78.751  285.019       192.26
 162.416   92.723  263.774       192.26
 323.327   91.565   82.703       192.26
 179.018  146.087   53.165       191.39
  23.912   86.059  144.396       191.13
 154.863   89.181  347.133       190.53
 200.081   89.902   34.317       190.53
  45.455   77.717  181.559       190.53
 186.725   78.484   55.627       189.66
  35.659   94.518  152.720       189.66
 216.888   82.358  244.371       188.79
   9.331   83.451  146.305       188.79
 231.255  112.094   61.096       188.79
 204.985   67.268  317.191       188.79
  95.213   95.068  297.282       187.93
 150.045   74.909  341.701       187.35
 358.757   28.864  296.452       187.06
 169.951  147.989   27.937       187.06
   5.897   34.428  303.178       187.06
 104.563   61.824  305.205       186.20
 205.420  117.471  243.551       186.20
 212.582   21.416   65.612       185.33
 190.484   88.286   32.151       184.46
  29.725   89.694  139.091       184.46
 240.295   79.993   60.588       184.46
  97.491   78.268  301.870       184.25
 155.973  141.587  219.696       183.60
  77.030  102.616  130.284       183.60
 216.770   96.532   13.402       183.60
 131.205   64.226  298.013       181.87
  93.672   18.908   88.716       181.87
 351.896   94.908  142.162       181.87
 170.946   93.357  270.457       180.13
  18.616   20.435  324.984       180.13
 173.499   32.865    7.118       180.13
 251.385  168.309  252.080       177.54
 300.464  163.960  299.598       177.54
 311.920   77.328  122.770       177.54
   9.485  152.004  319.133       175.80
 325.937  152.774  259.260       174.07
 212.014   22.447   65.439       174.07
  54.865   93.161  118.559       174.07
 195.434  140.688  188.653       173.49
  30.809   87.049  144.128       173.21
 240.426   79.731   60.252       173.21
  16.392   84.470  106.172       173.21
 188.989   27.465  101.194       172.34
 269.588  143.730  249.013       172.34
 152.654   98.043  256.273       171.47
  49.927  107.807  132.907       171.47
 254.998   73.074   76.978       171.47
 175.245   81.076   32.887       171.47
  78.501   83.691  350.040       169.74
 104.524   14.821   88.216       169.74
 151.394  142.695   24.733       167.14
  16.398   82.175  154.727       167.14
 254.499  108.736  201.153       167.14
   0.860  158.318  283.969       166.28
  59.433   65.718  297.136       165.41
 217.523   98.837    8.903       165.41
 219.782  136.727  222.499       165.41
 233.511   86.882  242.028       165.41
 252.829   72.924   74.101       164.83
 272.372   39.626  268.158       164.54
 148.683   30.497   85.556       164.54
   9.410   28.067  217.148       163.68
 195.790   91.662   67.519       163.68
  71.066   67.535  303.379       162.81
 169.907   32.941   70.355       162.81
 120.623   96.690  291.193       161.95
 187.317   92.180  262.425       161.95
   7.155  152.270  316.301       161.08
 326.034   95.411  109.717       160.21
 210.193   90.525  248.220       160.21
 227.944   84.058  236.484       160.21
 265.674  109.297   67.500       159.35
   3.853   96.960  158.768       159.35
 158.608   76.643  268.258       159.35
  38.998   81.158  146.807       158.48
 264.802  106.634   61.957       157.62
 102.787  149.264  332.864       157.47
  38.545  112.162  111.822       156.75
 210.361   91.345   36.700       156.75
 304.390   16.360  351.512       156.75
 202.582   82.525  258.062       156.17
 156.524   77.311  325.746       155.88
 316.910   80.858  131.627       155.88
 197.292   29.472   96.490       155.02
  89.847   35.362  110.592       155.02
 180.529   33.445   99.810       155.02
 252.952  167.793  254.229       155.02
  97.396  103.426  298.237       155.02
 347.913   87.279  106.889       153.29
  76.239   90.495  339.024       153.29
 174.614  141.492  359.004       152.42
 357.094   91.127  153.858       151.55
 124.107   75.019  299.902       151.55
  21.230   80.703  134.422       151.55
 359.981   24.468  172.120       151.55
   8.423   88.045  134.146       151.55
 122.157   15.613   64.882       150.83
 225.144  174.476  166.396       150.69
  18.453  104.960  108.993       150.69
 115.061  165.373   66.378       149.97
  83.015  106.552  301.764       148.96
 200.672   83.392  294.264       148.96
 125.801  155.853  306.905       148.96
 325.429   23.266  211.399       148.96
  86.387   85.255  302.191       148.96
 169.483  141.452   45.733       148.96
 122.791   69.067  291.525       148.96
 355.208   82.419  137.425       148.09
 328.394   90.665  112.133       148.09
 156.040   86.285  349.897       147.22
 223.603  157.822  164.747       147.22
 149.458   86.992  350.028       147.22
 191.864  101.457   36.042       147.22
  20.187   95.352  149.320       147.22
 344.273   17.544  332.527       146.36
  84.449  163.960  318.834       146.36
 201.596   81.007   77.277       146.36
 157.123   94.302  357.651       146.36
  23.312   82.086  165.101       146.36
 117.975  153.762   41.881       145.49
 242.940   41.470  252.073       145.49
   4.655   76.448  152.128       145.49
  22.406   83.354  110.177       145.49
 205.086   95.637  238.748       143.76
 251.860  107.036  233.076       143.76
  80.151   69.191  308.257       143.76
 187.459   27.644  103.224       143.76
 181.158   89.236    0.084       143.76
 199.982   18.462   42.032       142.89
 212.226   29.593   84.185       142.89
 196.746  149.996  185.236       142.03
 210.619   84.150   39.335       141.16
 164.167   30.605  103.145       141.16
 208.007   86.075  243.946       140.30
  29.967   27.662  274.502       140.30
  41.823   90.649  331.903       139.43
 109.029   66.005  299.097       139.43
 209.927   85.945   69.497       138.56
  27.592   86.201  144.228       137.70
 248.623    9.213  302.563       137.70
 147.136   81.606  191.652       136.83
 286.394  150.055  276.027       136.83
  21.301   81.492  134.176       135.97
  83.804   79.828  345.635       135.97
 299.629   54.148  246.567       135.97
 106.412  101.832  295.281       135.10
 278.609   28.396  213.906       135.10
 354.778   85.025  145.708       134.23
  91.327   18.255  108.515       134.23
 331.324   77.219  167.551       134.23
 359.926  155.641   64.629       133.37
 318.050   87.978  128.334       133.37
  91.292  120.151  315.268       132.50
 195.935   91.272  247.126       132.50
 351.566  154.005  326.733       132.50
 285.169  115.030  239.966       132.50
 234.022   21.512   61.872       131.64
  10.001   23.939  304.873       131.64
  77.511  155.446   84.709       131.64
 132.832   29.254   90.694       130.77
 270.638  146.461  249.098       130.77
 171.812   32.096   51.744       130.77
  67.270   67.988  296.742       130.77
 175.620  148.918  346.000       129.90
 172.010   26.453  118.892       129.90
 104.321   60.361  298.107       129.90
 240.441   79.860  240.048       129.90
 224.437   95.143  241.335       129.90
 283.714  113.291   71.243       129.18
 102.726   75.235  294.735       129.04
  20.650  150.802  318.679       129.04
 193.295   94.238   15.141       129.04
 237.246   75.585  237.345       129.04
 297.977   76.324  173.375       129.04
  88.788   65.730  306.016       129.04
   4.477   25.548  238.052       129.04
 201.792   89.342   18.319       128.17
  52.490  159.517  357.722       128.17
 104.253   68.960  291.943       127.31
 219.476   33.291   61.990       127.31
 256.278  109.165  200.010       127.31
 106.149  154.210  334.670       127.31
 357.562   87.794  159.950       127.31
 247.322  107.206   58.299       126.44
 348.111  101.079   99.310       126.44
 310.806   17.537  345.201       126.44
 103.195   61.069  306.063       126.44
 181.070   92.805  252.134       126.44
 203.127  114.440  245.915       126.44
 186.332   30.506   94.063       126.44
 250.308   72.483  246.949       125.57
 173.729   54.855   62.359       125.57
 251.182   23.858   15.003       124.71
  10.852  145.451  323.552       124.71
 287.390  156.862  288.873       124.71
 219.355   86.512   71.828       124.71
 240.227   77.461  236.838       123.84
 116.576  102.330    4.595       123.84
 201.821   81.154  258.570       123.84
 183.161   37.448   55.990       123.84
 335.250   39.564  213.719       122.98
 276.948  130.239  247.878       122.98
  95.113   81.936  309.078       122.98
  85.005   69.095  235.072       122.98
 293.384  114.885  304.449       122.11
 310.782  132.681  274.985       122.11
 325.907   95.542  109.488       122.11
 206.756   91.506  229.044       122.11
 168.173   32.545   72.288       121.24
  25.500  110.867  103.355       121.24
 183.388   83.745   53.335       121.24
  19.738   76.175  111.665       121.24
 311.991  123.517  118.754       120.38
   9.285  152.750  354.409       119.66
 192.734   32.835   86.669       119.51
 322.848   90.529  112.300       118.65
 310.221   64.848  129.375       118.65
 286.418  118.559  241.183       118.65
  15.627   79.797  146.068       118.65
 310.895   54.937   49.170       118.65
 193.289  104.227  273.558       117.92
  49.063   87.853  118.670       117.78
 337.377  104.054  150.359       116.91
 212.146   86.769    8.413       116.91
   9.316  152.998  313.321       116.91
 188.610  146.552  239.026       116.91
  85.283   67.895  304.564       116.91
 248.090   23.077   57.848       115.18
 255.701  160.014  256.382       115.18
  20.546   22.110  284.141       115.18
 111.700  120.978  344.731       114.32
 296.935   19.785  242.954       113.45
 116.944  109.620  304.134       113.45
 197.279   99.151  227.104       112.58
  69.030   23.468  115.210       112.58
 276.966  143.457  276.372       112.58
 191.964   86.483   16.915       111.72
  87.798  149.738   14.705       111.72
 349.594  151.633  323.807       111.72
 186.978   94.533  264.149       110.85
 106.837   96.486  301.024       110.85
 185.908   96.809  273.460       110.85
  61.757   92.224  319.560       109.99
 264.216   26.197   32.604       109.99
 320.488   78.373  162.245       109.99
 160.403   87.819  316.171       109.99
 346.690   99.497  101.501       109.12
 140.556   92.940  256.877       109.12
   7.057   88.221  157.558       109.12
 249.509   91.754   59.856       109.12
 212.853   92.480    5.724       109.12
 266.375  117.201   63.894       107.53
  16.773   90.857  142.944       107.39
 337.292   89.037  157.045       107.39
 203.764  102.365  346.813       106.52
 329.083   88.714  169.996       106.52
 252.400   61.662   56.909       105.66
  77.092   73.343  295.628       105.66
  69.520   22.199  113.999       105.66
 206.178   91.197  289.340       105.66
  60.488  100.023  179.285       105.66
 356.138   28.764  345.603       105.66
 313.096   92.611   53.128       105.66
 191.282   81.786  283.275       104.79
  96.792   83.506  308.835       104.79
 219.732   89.069   11.899       104.79
 355.666  150.139  152.359       103.92
 165.521   23.182  115.491       103.92
  71.408   69.139  301.218       103.92
  16.863  152.044  309.291       103.78
   2.245   94.119  137.470       103.06
  94.201   60.030  302.749       103.06
 293.285   81.734  178.650       103.06
  97.258  138.288  330.874       103.06
 106.596   67.412  288.184       102.19
 269.863   19.535  269.473       102.19
 149.963   88.919  335.687       102.19
 212.880   96.988    8.662       102.19
 117.384   13.453  124.837       102.19
   6.589  152.259  315.933       101.32
 149.486   85.309  284.403       100.75
 312.323   27.928    5.761       100.75
 219.809   88.237   11.416       100.46
  86.626  144.268  325.850       100.46
 314.259   55.552  157.108       100.46
 347.502   82.397  150.004       100.46
  77.745  116.054    5.253       100.46
 273.057   69.306  231.934        99.59
 174.012   58.745  261.566        99.59
 320.064   90.429  121.596        98.73
 267.490  153.195   80.571        98.73
  67.592   97.751  297.482        98.73
 105.184   65.907  299.548        98.73
  42.578  117.949  358.818        98.73
 220.042   71.776  246.926        98.73
  82.648   56.297  295.258        97.86
 190.440   87.157   16.828        97.86
  35.427   77.617  114.201        97.86
 311.122  146.616  307.749        97.86
 347.356  148.502  309.209        96.13
 341.494   29.349  197.594        96.13
 152.779   97.226  259.773        96.13
 242.651  159.120  239.843        96.13
  96.083   97.005  305.132        96.13
 169.963  134.415  248.157        96.13
 194.808  174.404   15.291        96.13
 276.433  144.775  273.927        96.13
  14.810  151.531   29.267        95.26
 185.383  148.230  226.032        94.40
 171.810   61.530   82.861        94.40
 283.449  116.450  175.497        94.40
  45.154   48.778  299.223        94.40
  30.200   87.015  144.204        94.40
 257.938   33.853  355.725        94.40
  86.866  122.069  351.462        93.53
 285.469  148.465  275.384        93.53
 152.907   77.600  350.591        93.53
 229.854   88.268   77.672        93.53
 319.477  101.351  133.273        93.53
 253.215  164.132  134.202        92.66
 244.101   80.392   64.677        92.66
 189.264  149.619  192.352        91.80
 226.408   73.363  229.728        91.80
 115.514  110.075  352.833        91.80
 182.068   83.179  267.546        90.93
  10.110   87.005  141.190        90.93
 333.255   94.894  150.944        90.36
 117.773   81.607  301.951        90.07
 242.752  158.272  239.040        90.07
  20.533   49.483  313.450        90.07
 183.247   83.001   18.931        90.07
 162.323  142.717  252.690        89.20
  25.381   91.684  129.303        89.20
 243.171  144.329  270.139        88.48
  77.271   61.232  306.559        88.33
  22.792   84.719  139.458        88.33
  27.797  100.201  121.557        88.33
 323.353  104.745  115.487        87.47
  15.155   79.409  146.318        87.47
 248.274   23.197   56.940        86.60
 346.123  133.714   89.337        86.60
 203.428  115.916   46.764        86.60
 109.621   99.962  290.978        85.88
 104.545   13.468   97.077        85.74
  96.641  143.198  338.375        85.74
  83.173   68.710  292.484        85.74
  79.033   80.564  295.795        84.87
  24.489   26.584  169.694        84.87
 305.833   96.293  288.536        84.00
 220.980   74.938   61.619        84.00
 239.425  154.841  244.091        84.00
 247.158  101.628    1.589        84.00
  76.104   74.103  303.442        84.00
  22.463   84.485  149.100        84.00
 118.693   88.309  229.386        83.72
 235.529   79.317   59.191        83.43
 212.010   99.159    7.758        83.14
  62.411    3.005  115.425        83.14
 121.159   12.221  121.815        83.14
 204.384   85.585  261.146        82.27
 201.670   82.679   64.489        81.41
  20.726  112.869  109.847        81.41
  34.386   79.332  143.498        81.41
 347.927   15.558  328.399        81.41
 323.394   91.931   81.936        81.41
 139.076  165.949   41.541        81.41
 171.109  143.470  193.135        80.83
 245.117   78.129  237.534        80.54
  81.570   55.711  285.867        80.54
 226.770   78.050  239.776        80.54
 151.859   89.406  228.925        80.54
 134.173  151.185  356.047        80.54
 312.760   94.325  113.750        80.54
   4.558   76.410  151.970        80.54
 192.434   52.786   11.457        80.54
 346.473   99.559  103.346        80.54
 234.261   17.237   55.644        79.79
 165.500   22.295  127.555        79.67
 334.189  104.880  123.040        79.67
 145.260   75.305  333.612        79.67
 249.966   24.203   55.726        77.94
 314.331  146.842  310.361        77.94
 206.579   98.328   63.274        77.94
 114.447   10.015  106.418        77.51
 278.439   54.824   43.501        77.15
  58.101   93.823  335.302        77.08
  73.022  105.124  312.842        76.21
 229.643   91.455   17.879        76.21
 298.659  151.325  297.826        75.34
 110.036   96.729  291.017        75.34
 190.145   95.714  238.099        75.34
 196.915   88.450  356.408        75.34
 191.756   90.483  266.505        75.34
 258.900   49.433    3.193        74.48
  79.495  155.296   56.861        74.48
 160.952  118.758  344.004        74.48
 114.585    9.815  107.721        74.48
  97.611   78.429    1.388        74.48
 180.121   91.854    1.024        73.61
 175.048   37.437   85.129        73.61
 215.932   19.838   92.958        73.61
 213.057   83.077   71.379        73.61
  86.688   69.068  306.681        73.61
 227.314  105.641  242.410        73.18
 153.904  153.271  202.018        72.75
  69.611   23.658  114.444        72.75
 202.528   33.550   80.016        72.75
 175.752   96.110  265.449        72.75
 196.890  153.098  116.518        71.88
 267.475  155.090  267.183        71.88
 271.610  168.427  272.794        71.01
 263.358  155.317  268.324        71.01
 348.614   25.631  199.624        71.01
 317.616   89.424  109.205        71.01
 100.933   76.921  298.619        70.15
 156.091   77.467   25.960        70.15
 269.336   74.199  233.515        70.15
 121.375   56.975  288.359        70.00
 334.082   98.059   98.093        69.28
 338.484   94.477  108.253        69.28
 267.588  100.473   53.910        69.28
  58.016  104.799  302.492        69.28
 161.454   87.390  256.028        69.28
 258.385  162.256  299.092        68.42
  10.272   84.953  144.591        68.42
 194.311   85.691  272.731        68.42
   8.857   33.435  184.245        68.42
 257.315   76.612  289.119        67.55
 263.471   75.011   57.387        67.55
  19.615   87.794  144.859        66.68
 262.582   76.325   59.403        66.68
 260.344  158.740  263.869        66.68
 234.105   28.069   52.551        66.68
 299.703  149.133  284.863        66.68
 185.212  146.405  202.204        66.68
 327.284   82.178  108.469        65.82
 251.247  157.311  247.411        65.82
 276.360   10.486  258.760        65.82
 182.494  148.956  242.762        65.82
  83.498   78.594  286.253        65.82
 203.729   90.795   23.747        64.95
 218.425   20.048   90.149        64.95
  73.118   67.730  309.942        64.95
 349.420  150.766  324.352        64.09
 333.270   84.461   99.728        64.09
 163.477   80.896   13.118        64.09
   7.309   87.016  140.051        63.22
 226.391   77.936   56.805        63.22
 256.103  105.692   55.916        63.22
 333.977   10.321  187.893        63.22
  21.125   75.562  129.735        63.22
 339.877   97.291  138.528        63.22
 246.093  157.090    6.146        62.35
  27.944  156.085  320.004        62.35
  67.458   98.513  356.864        62.35
  79.018   40.103  273.126        62.35
 316.874  104.750   71.754        62.35
 219.546   88.052   70.797        62.35
 220.004   74.537   60.547        62.35
 199.350   29.791  103.909        62.35
 295.877  108.896  241.203        61.78
 275.771   97.197  172.782        61.49
 242.230   84.220  235.609        61.49
  64.634   58.746  310.420        61.49
 329.613   87.127   87.759        61.49
 241.299   83.847  233.005        61.49
 271.208  151.987  270.459        60.62
 153.329   20.553  128.680        60.62
  89.644   55.065  302.823        60.62
 350.173  162.161  322.649        59.76
  14.382  140.362  309.588        59.76
 284.373  113.950   60.210        59.76
 119.142  164.081   20.651        59.76
 297.541   83.550   54.076        59.76
 308.938   41.938  230.336        59.76
 307.708   95.592  288.152        59.76
 207.936  103.806  227.230        58.89
 346.948   84.670  157.642        58.89
 138.491  161.143  194.310        58.02
 238.735  100.290  237.545        58.02
  26.449   92.442  128.185        58.02
 150.843   99.271  240.632        58.02
 156.034   81.449  341.473        58.02
 192.631   23.907   33.589        58.02
   3.172   70.547  143.516        58.02
 179.692   29.511   99.402        58.02
  22.910   65.292  353.876        58.02
  40.439   88.108  142.384        57.16
 307.128   88.946   66.950        57.16
 221.662   78.980  226.293        57.16
 152.505  102.153    9.444        57.16
 155.358  101.799  296.152        57.16
 358.868   71.971  150.225        57.16
  30.155   91.152  138.714        57.16
 343.641  154.972  269.841        57.16
 105.242   62.818  305.278        57.16
 187.847  158.592  205.773        57.16
  57.621  154.652  331.381        56.29
 235.519   57.226  232.436        56.29
 223.990   93.948  229.348        56.29
  24.407  143.234  319.126        56.29
  49.551  108.167  131.517        56.29
 277.102   98.776  291.055        56.29
  92.457  107.705  254.204        56.29
 310.405   46.623  220.747        56.29
  24.935  156.194  307.677        55.71
 116.486   69.821  300.012        55.71
 211.783   30.812  281.420        55.43
 134.130  151.705  356.085        55.43
 139.643   73.081  304.682        54.56
 149.056   89.498  310.408        54.56
 197.704   20.362  112.734        54.56
  69.039  120.398  124.648        53.84
 156.754   14.383   93.206        53.69
  82.136  105.367    3.489        53.69
 273.331  143.331  273.410        53.69
  95.528  146.640  315.089        53.69
 171.174  166.340  198.108        53.69
 223.467   98.410   77.161        53.69
 221.802   90.223    1.976        53.69
 254.775  154.581  259.531        53.69
  95.773   49.440  288.061        53.69
  77.308   61.498  306.505        53.69
  61.102   72.162  308.599        52.97
 328.352   90.943  111.474        52.83
 294.743   83.429   52.156        52.83
  38.191   21.667  151.197        52.83
 311.707   13.969  325.009        52.83
 347.739   93.068  154.168        51.96
 121.874   80.755  302.468        51.96
 305.012   51.615   48.337        51.96
  26.791   92.919  137.574        51.96
  46.735  105.824  310.702        51.10
  97.090  148.097  336.261        51.10
  36.568   48.075  307.726        51.10
 221.223   78.429   61.516        51.10
 197.910  177.228  243.168        51.10
 279.871  121.503   62.163        51.10
  36.165   85.246  302.075        51.10
  87.466   62.161  296.297        50.23
 332.860   85.460  101.250        50.23
  11.849   79.237  145.609        50.23
 292.416   84.466  299.795        50.23
 168.987   89.636  283.740        49.80
 340.580   67.655  158.346        49.36
 333.541   82.245  158.771        49.36
 330.008   37.660  336.678        49.36
 191.238   92.827  267.621        48.79
 241.358  136.747  235.480        48.50
 175.279   87.970  263.852        48.50
 183.630  155.727  197.374        48.50
 214.348   92.742  246.870        48.50
 203.775   90.924   83.417        48.50
 199.878   97.075   60.394        47.63
 116.115  109.218    2.875        47.63
 168.409   72.452  216.820        47.63
 147.545   93.362  232.940        47.63
 219.375   89.323    6.637        47.63
 144.220   31.492   74.670        47.63
 325.193   95.996  108.692        47.63
 333.862   37.661  321.786        47.63
 315.886  102.495  119.344        47.63
 171.601   34.340   21.919        47.63
 139.456   99.189  337.066        46.77
 275.237   35.898  197.306        46.77
 176.196   28.476  103.078        46.77
 102.229   72.811  297.826        46.77
 103.030   74.607  293.456        45.90
 346.592  161.470  259.927        45.90
   0.105   90.110  167.649        45.90
  72.157  106.114  305.357        45.90
 310.931  154.764  314.639        45.76
 137.543   99.125  228.320        45.03
  49.982  108.178  131.572        45.03
 309.112   79.871  275.858        45.03
  50.441  108.618  132.740        45.03
 236.683   65.268   65.161        45.03
 227.058   93.514   67.441        45.03
 227.616   84.145  235.477        45.03
 330.151   64.038   24.190        44.17
 182.158  142.442   65.579        44.17
 205.968  153.799  191.400        44.17
 202.718  151.517  242.117        44.17
 255.973  160.017  256.417        44.17
  99.464   76.934  291.902        44.17
 180.240   89.514   34.602        43.30
 334.617   48.931  165.846        43.30
  27.050   93.368  137.855        43.30
 175.516  149.411  241.608        43.30
 242.194   82.809   63.590        43.30
  66.025  168.989   37.371        43.30
  13.658  151.296  328.400        43.30
  65.062   71.567  175.426        42.72
 340.841  102.013  110.313        42.44
 205.479  135.381  228.652        42.44
  82.020  145.973   32.371        42.44
 127.674   72.200  299.266        42.44
 160.329  112.986  201.864        42.44
  77.778   18.046  122.028        42.44
 236.786   76.087  236.621        41.86
 322.071  101.516  110.099        41.57
 174.028  101.357  219.932        41.57
  62.190   21.376  120.983        41.57
   5.851  152.033   63.229        41.57
 106.614   67.088  287.831        41.57
  74.271  161.566   12.927        41.57
 337.635   92.294   94.377        41.42
 135.560   26.944   89.795        41.28
 163.124   75.455   42.893        40.70
  25.259   26.807  177.487        40.70
   8.026  166.084  289.659        40.70
 255.210   26.700   34.361        40.70
 241.593   80.294   57.456        40.70
 352.463   30.662  353.041        40.70
 276.914  110.092   64.763        40.27
  13.228   99.628  140.776        39.84
 274.301  145.152  274.232        39.84
 293.232   98.767  302.420        39.84
 171.448   93.178  269.187        39.84
 189.406   38.772   46.582        39.84
  29.870   87.204  142.803        39.84
  72.342   76.942  301.834        39.84
 281.965  154.398  267.654        39.84
 288.960  147.816  249.150        39.84
 345.395   27.447  222.451        39.84
  78.848   76.682  309.362        38.97
 225.762   88.718   52.548        38.97
 329.726   66.491  143.431        38.97
  92.158  127.908  354.779        38.97
 166.688   40.091  350.275        38.97
 238.797   24.566   26.820        38.97
  23.068   97.066  127.238        38.83
 244.507  156.287  263.409        38.25
 208.715   76.828   54.466        38.11
 172.942   37.235   85.738        38.11
  25.071  123.273  112.705        38.11
 206.855   93.246   83.321        38.11
 294.097  160.805  294.601        38.11
 240.177  160.074   75.254        38.11
 286.487  161.163   46.843        38.11
  88.011  121.229  353.121        38.11
 168.095   80.075   22.803        38.11
 350.117  115.261  147.349        37.38
  40.834   89.538  128.492        37.24
 322.553   96.102   76.701        37.24
 241.328   10.765  267.240        37.24
 263.829   66.183  250.710        37.24
  10.671   19.398  290.449        37.24
 114.183  105.070  304.358        36.81
 113.178   67.106  309.461        36.37
 214.538  101.795  221.813        36.37
 226.938   79.107   57.324        36.37
 221.634  105.068  256.203        36.37
 328.095   91.053  111.938        36.37
 103.269   69.431  216.621        36.37
 241.680   84.740   56.194        36.37
 242.452   52.132  226.835        36.37
 316.880   80.077  134.948        35.51
 352.109  151.119  297.135        35.51
 277.388   71.068   61.873        35.51
 227.663   78.538  237.703        35.51
 276.219   96.228   52.451        35.51
 209.569  164.976  234.301        34.64
 188.669   26.140   58.281        34.64
 323.267   91.889   82.135        34.64
  57.185    6.469  119.654        34.64
 297.388  154.683  287.179        34.64
 348.916  151.324  322.982        34.64
 345.899   32.384  217.450        34.64
 325.316   47.023  357.785        34.64
 356.345  148.475  321.359        34.64
 101.305   62.993  292.865        34.64
 184.760  100.174   39.372        34.64
  27.722  132.091  303.032        34.64
 285.866  145.676  287.958        34.64
  82.858  105.518    2.019        34.64
  10.301   91.488  148.118        33.77
 359.364  133.693   73.451        33.77
  72.242  104.947  345.036        33.77
 312.625  152.405  299.595        33.77
  76.315   67.107  296.461        33.77
  13.854   79.758  160.413        33.77
 177.756  146.764  204.197        33.77
 277.036   95.489  228.140        33.77
  51.895  111.435  132.584        33.34
 333.556   13.420  320.478        33.20
 276.005   91.061  255.586        33.05
 147.904   96.638   11.784        32.91
 199.854   64.707  228.634        32.91
 325.211   73.011  129.779        32.91
 204.655   61.409  271.654        32.91
 181.064  165.828  206.357        32.91
 177.618   21.870  139.076        32.91
   2.655   71.898  143.582        32.91
 261.425   72.919  251.835        32.91
   5.660   34.952  293.305        32.91
 275.480  161.762  272.266        32.91
 245.358   83.219  222.825        32.91
 115.554   61.118  298.849        32.91
  69.708   64.091  168.483        32.35
 169.451   49.230  264.042        32.33
 338.566   93.979  138.931        32.04
 120.400  137.847  203.092        32.04
 179.278  147.860  226.082        32.04
 251.604  131.938  247.526        32.04
  10.815   20.884  234.063        32.04
 256.265   11.119   47.413        32.04
 103.588  118.851  354.021        32.04
 133.452  154.210  358.026        32.04
 194.650  100.372   26.329        32.04
 311.404  131.473  140.727        31.38
 141.049   66.754   22.449        31.18
  17.693  145.540  339.100        31.18
 332.443   81.663  161.144        31.18
  82.876  102.612  348.871        31.18
 114.614   67.573  289.132        31.18
 332.275   83.797   97.086        31.18
 163.399  152.501  343.979        31.18
 329.881   97.733  113.510        31.18
 102.140  113.933  310.017        31.18
  36.265   93.981  152.832        31.18
  37.266   92.866  145.557        31.18
 117.547   71.511  298.628        31.18
   1.760  150.646  321.578        31.18
 316.629  145.550  261.250        31.03
 334.971  157.315  309.206        30.31
 106.210   18.742   74.540        30.31
  95.484   25.010  101.702        30.31
 128.010   90.212  292.465        30.31
   7.524   32.594  186.056        30.31
  23.429   83.092  136.362        30.31
 280.628  152.396   39.994        30.31
  88.923  120.221  331.391        30.31
 326.372  104.485   24.104        29.44
 247.298  140.965  259.115        29.44
 178.979   32.264   95.581        29.44
 145.382  133.138  242.071        29.44
  81.679   82.845  292.974        29.44
  93.001   17.646  107.299        29.44
 163.285   87.005  302.034        29.44
  16.683   82.888  151.423        29.44
 317.991   93.885  100.567        29.44
 219.425   86.067   10.507        28.65
  85.447   63.461  304.402        28.58
 338.789   98.542  137.693        28.58
 179.617  151.698  228.249        28.58
 104.382  160.017    9.750        28.58
 277.624   44.531   28.571        28.58
  12.503   84.127  137.680        28.58
  82.270  102.362  347.973        28.58
 216.059  101.073    5.520        28.58
 108.719   66.643  301.340        28.58
   8.273   41.885  334.928        28.54
 113.489  150.217  315.964        28.29
 251.033   75.501   61.707        28.15
 214.488   93.013  251.831        27.86
 106.758   67.609  287.524        27.71
 154.139  140.337  339.425        27.71
 185.157   32.221   71.293        27.71
  28.213   38.229  160.123        27.71
  27.433   92.799  317.414        27.71
 353.047  143.692  350.407        27.71
 277.123  102.373   57.909        27.71
 344.557   91.498  184.946        27.71
 146.352   84.076  250.779        27.71
 271.270   50.395  249.045        27.71
 183.680  148.816   41.227        27.71
 136.703   86.009  288.378        27.71
 222.780  163.444  106.175        27.64
 219.540   87.564   14.208        26.85
 343.137   95.372  325.682        26.85
  65.087   97.467  318.025        26.85
 328.427   94.087  127.850        26.85
 304.472   15.196  231.568        26.85
 136.469   86.983  304.564        26.85
 318.702   93.752  100.210        26.85
  11.905   77.575  177.868        26.85
   8.673   21.309  237.070        26.85
 191.164   90.779  266.372        26.85
 187.093  150.362  233.570        26.85
 352.974   38.667  186.720        25.98
  72.367  106.035  356.555        25.98
 211.068   30.601   40.607        25.98
 115.013   74.232  307.658        25.98
 256.544  104.826   56.178        25.98
  82.704   98.936  345.312        25.98
 163.592   51.925  320.958        25.98
  23.036   72.794  148.759        25.98
  37.386  122.291  353.638        25.98
 310.085   74.152  183.671        25.98
 352.987  169.781  198.750        25.98
  23.315  152.008  311.978        25.11
 112.258   98.721  359.031        25.11
 265.087   16.321   22.173        25.11
 356.193  103.022   93.303        25.11
 154.095   82.009  262.554        25.11
 102.778   64.389  305.003        25.11
  24.862   63.220  176.153        25.11
 345.023   93.762  134.474        25.11
 135.113   78.587  300.640        25.11
 200.566   83.785  270.762        25.11
  85.717   95.798  313.861        25.11
  21.440  103.428  126.803        24.83
 239.848   77.606  237.913        24.25
  73.891  132.556  346.892        24.25
 104.977  108.220    9.030        24.25
 301.034  152.192  298.899        24.25
 127.983   72.150  298.555        24.25
 125.702  169.155  338.861        24.25
  73.746  115.562  350.564        24.25
 244.096   61.240   56.785        24.25
 320.467  111.711  338.297        24.25
 260.385  156.809  217.556        23.82
 211.972   96.516  237.024        23.38
 254.160  163.917  234.923        23.38
  88.988  119.556  354.027        23.38
 236.632   84.932  214.694        23.38
 266.384   80.862   58.148        23.38
   0.165   85.792  115.437        23.38
 244.461   63.282   55.276        23.38
 309.249  145.340  305.639        23.38
 186.603   29.392   68.891        23.38
 227.882   90.757   16.929        23.38
 228.390   83.901   54.605        23.38
  35.336   92.191  149.938        23.38
 143.526   87.914  277.029        23.38
 163.069   85.886  278.988        23.38
 276.401   70.527   62.268        23.38
 202.450   98.542   11.337        23.38
 249.345  116.106   11.687        22.81
 328.468   93.952  127.939        22.52
  90.472  118.756  353.762        22.52
 230.965   66.183  258.227        22.52
 312.838   85.144  139.514        22.52
  17.852   97.901  135.261        22.52
  22.485   85.684  170.959        22.52
  29.610   85.354  326.504        22.52
 157.068  124.679   12.943        22.52
 327.257  108.742  202.486        22.52
  60.323   99.793  179.417        22.52
 272.298   51.760  245.865        22.52
 171.015  148.362  224.997        22.52
  62.328   22.119  184.088        22.52
 186.033   86.802  253.039        22.52
 102.685  114.528  309.510        22.52
   3.517   32.065  309.812        22.52
 159.277   26.769  114.644        22.52
 311.525   94.660  116.162        21.65
 270.686   81.710  238.761        21.65
 202.311   92.904  226.646        21.65
 164.974   72.113  334.367        21.65
 333.912  155.527   30.873        21.65
 287.456  124.344  175.130        21.65
 183.908   72.979  316.763        21.65
  22.123  100.165  102.529        21.65
 159.034   12.175   60.836        21.58
  89.406   19.966   93.487        20.93
 359.494  135.281  304.533        20.78
 201.478   89.554    2.448        20.78
 235.911   58.802  359.918        20.78
 272.516   72.667  228.745        20.78
  22.475   65.082  355.716        20.78
 202.860   99.411  306.572        20.78
 240.473   80.032  240.318        20.78
  81.943   55.798  296.840        20.78
 189.232   33.669   91.667        20.78
 201.420   20.235  110.962        20.78
  20.368  160.997   65.383        20.78
 276.911  167.151  215.755        20.06
 166.456   10.791  113.101        20.06
 199.342   84.230  270.563        19.92
 166.993  167.844  211.725        19.92
 108.730   66.073  301.053        19.92
  58.726  152.955  332.826        19.92
 251.039  104.331   54.616        19.92
 243.125  118.963  227.083        19.92
 193.358   84.451  275.034        19.92
  50.043   33.216  156.828        19.92
 121.763   37.980    5.325        19.92
 122.544  111.329  357.217        19.92
 152.457   89.509  222.163        19.92
 192.213   82.604   72.483        19.92
  31.090   28.073  204.660        19.92
 273.006   72.729   47.751        19.92
 359.933   59.380   26.910        19.92
 196.792   28.504  105.919        19.92
 269.284   10.683   34.474        19.77
  56.927  103.324  122.760        19.41
 338.362   97.846  107.418        19.05
 269.412   10.064   34.580        19.05
 329.700   95.782  102.720        19.05
 325.534   20.874  338.445        19.05
  10.546  163.594  299.266        19.05
 301.627  103.697  283.841        19.05
  19.808   81.215  136.020        19.05
 106.571    6.306  216.348        19.05
  88.450  153.829   91.684        19.05
 246.751   81.937   63.027        19.05
 258.792   96.985   70.765        19.05
  77.606   61.515  305.436        19.05
 158.011   78.968  322.816        19.05
 220.396   92.845  285.180        18.69
 308.317  107.728    2.306        18.33
 231.554  149.444  188.878        18.19
  66.926   67.452  237.605        18.19
 186.100  149.685   48.117        18.19
  95.670   83.758  308.996        18.19
 144.870   65.499   70.011        18.19
 350.489   61.271  169.120        18.19
 349.239    1.393  310.070        18.19
  45.267  114.668  166.847        18.19
 216.887  153.080  206.382        18.19
 183.719  157.405  345.477        18.19
 295.188  102.044   59.678        18.19
 100.048  146.169  347.984        18.19
 104.317   71.224  284.948        18.19
  63.560  143.740  292.588        18.19
 227.585   78.872  231.530        18.19
 152.655   85.328  329.680        18.19
 107.295   21.403  167.611        18.19
 317.437  108.736  185.977        18.19
 332.339   13.659  321.385        18.19
 221.483   21.042   45.547        18.19
  94.146   79.429  301.055        18.19
 343.898  125.328  323.684        17.61
  47.546  155.987  356.815        17.46
  96.027   89.438  345.831        17.32
 103.104   65.032  305.149        17.32
 201.203   98.869  224.393        17.32
 152.008   87.319  341.090        17.32
 227.301   78.936   59.363        17.32
 283.620  141.920  279.115        17.32
 272.060   67.130   61.812        17.32
 273.144   29.502   43.918        17.32
 345.035  149.519  319.512        17.32
 240.261   79.978  241.120        17.32
 277.399   24.711   18.235        17.32
 166.885  108.200  218.938        17.32
 269.600  155.000  283.911        17.32
 211.360   85.436    9.255        17.32
  14.028   57.014  178.965        17.32
 203.797   26.562   78.112        17.32
 121.046   17.328   66.813        17.32
 279.417   44.484  203.230        17.32
 100.079  112.256    6.140        17.32
 100.614   61.968  241.065        17.32
 148.395   76.735  215.352        16.45
 185.294   45.957  313.958        16.45
 188.377   82.015   44.321        16.45
 338.923   44.844   42.251        16.45
 327.470   25.876  346.577        16.45
 247.103   81.597   63.137        16.45
 299.654   70.957  290.960        16.45
 173.979  166.492  320.787        16.45
 121.294   80.846  303.260        16.45
 150.106   84.760  288.642        16.45
 308.634   55.466  170.757        16.45
 314.506  157.471   75.253        16.45
 134.780  151.917  357.341        16.45
 178.817   92.910  249.021        16.45
 336.185  159.701  293.394        16.45
 251.315   62.240   57.805        16.45
  14.497  109.272  108.984        16.45
 239.864   77.334   58.390        15.59
   4.729   76.404  152.517        15.59
  22.532   84.684  162.593        15.59
  66.647   68.473  295.690        15.59
   9.221   30.771  166.879        15.59
 157.934   97.713  321.362        15.59
 156.188  149.144  344.824        15.59
 227.431   91.681  256.240        15.59
 205.869   86.775   31.871        15.59
 271.430  144.406  251.460        15.59
 173.854   97.174  252.313        15.59
 176.938  144.334  109.658        15.59
 349.456  115.114   87.073        15.59
 188.772   83.481  208.058        15.59
 160.105   68.045  341.555        15.59
  69.562   22.572  291.157        15.59
 144.271   29.028  276.140        15.59
  39.960   89.237  141.501        15.59
  87.913   66.482  305.316        14.72
 268.645   73.753   53.139        14.72
 163.313   73.828  284.816        14.72
 293.673  115.493  304.168        14.72
 152.489   98.251  259.328        14.72
 311.236   94.642  116.186        14.72
 287.653  161.173  280.901        14.72
  24.178   82.064  147.789        14.72
  63.039   97.930  296.147        14.72
 237.611   75.957   56.310        14.72
 293.802  107.272   49.876        14.72
 141.012   73.484  304.723        14.72
 303.865  120.745  139.624        14.72
 331.962   78.182  108.104        14.72
 323.718   91.905  141.692        14.72
 339.548   50.578  145.668        14.72
 250.704  100.903   77.679        14.72
 337.550  138.809  206.933        14.72
 113.317   65.266  295.889        14.72
 271.680   59.548  282.466        14.15
 285.130  116.959   54.379        13.86
 164.650   50.092  343.413        13.86
 156.016  142.068   26.397        13.86
  17.801   21.944  165.162        13.86
  98.171   98.030  344.646        13.86
   6.002   32.211  170.773        13.86
 353.251  156.583  286.827        13.86
 303.828  120.591  140.559        13.86
  76.103   74.773  302.810        13.86
  26.081   87.504  129.171        13.86
 160.423   90.542  272.111        13.86
 195.177   85.056  274.058        13.86
 116.247  129.498  311.922        13.86
 105.271   96.394  300.148        13.86
  62.236  128.280  313.894        13.71
 198.333   35.700  117.842        12.99
 242.717  122.747  237.103        12.99
 154.316   96.211  322.937        12.99
 105.350   71.705  283.617        12.99
   3.189   29.291  191.740        12.99
 173.265   20.474   83.489        12.99
  81.539   53.259  281.969        12.99
 345.644  107.028  149.125        12.99
 175.503   22.375   19.553        12.99
 277.236   32.940   23.450        12.99
 152.929   98.392  259.577        12.99
 108.868   66.091  301.175        12.99
  19.288   93.018  145.001        12.99
 266.992   58.765   57.974        12.99
 346.882   91.801  101.260        12.99
 199.806  101.499  302.493        12.99
 140.363   73.412  304.644        12.99
 164.201    9.986   50.446        12.99
 307.813   95.650  288.129        12.99
 214.851   90.318  241.913        12.56
  43.583   90.134  152.222        12.41
 179.186   35.852  294.239        12.12
 108.902   65.932  300.194        12.12
  51.922  113.227  342.240        12.12
 123.173   99.099  302.896        12.12
 106.794   67.243  287.500        12.12
  51.603   16.886  266.591        12.12
 237.860   75.284  237.216        12.12
 142.751  110.668    3.147        12.12
 251.900   74.962   53.973        12.12
 229.342   93.900   64.473        12.12
 227.257   79.022  239.595        12.12
 298.039   82.870  184.726        12.12
 344.905   94.050  134.707        12.12
   2.130   86.759  137.469        12.12
 148.559   85.817  232.376        12.12
  76.198   74.530  183.459        12.12
 203.673   94.976   17.848        12.12
  17.690  132.086  326.527        12.12
 176.820  132.502  214.760        12.12
 184.970   37.339   55.318        12.12
 119.114    5.321  173.324        12.12
 116.115   20.244   27.561        12.12
  34.669   86.286  115.228        12.12
  20.506  159.296  308.495        11.26
 159.133   75.196  269.622        11.26
 146.944   26.024   99.814        11.26
  62.191   43.416  303.704        11.26
 237.217   76.259  237.022        11.26
  62.375  127.842  314.463        11.26
  10.834   91.959  147.910        11.26
   7.437   87.098  150.767        11.26
 279.342  151.078  358.224        11.26
 177.131   56.556  277.648        11.26
 183.281   83.028  268.644        11.26
 162.069   65.119  270.917        11.26
  71.330   67.191  303.562        11.26
  19.652   76.916  110.935        11.26
  17.693  144.306  343.345        11.26
 317.958   92.932  132.388        11.26
 162.831   30.213  101.650        11.26
 261.919  102.819  243.852        11.26
 146.049   65.468  274.161        11.26
 176.032   41.716  303.408        11.26
 266.534  111.509  247.208        11.26
  93.432   17.574   88.137        11.26
 276.747    5.493  357.500        11.26
 125.411  136.165   16.213        11.26
 202.159   80.550   77.424        11.26
 176.916   41.181   62.667        11.26
 320.726  117.742  142.731        11.26
  21.945  146.791  333.712        11.26
  59.877   12.201  134.944        10.68
 226.799   83.934   55.778        10.39
 265.904   88.583   58.704        10.39
 293.100  159.187  297.961        10.39
  85.361   63.997  176.940        10.39
   1.969  150.352  322.118        10.39
 331.863  101.666  128.251        10.39
 259.769  172.785   81.517        10.39
 111.103   13.307  190.257        10.39
  18.654  162.030   16.583        10.39
 301.698  103.943  283.884        10.39
 121.363   73.036  233.408        10.39
 161.995   65.451  271.252        10.39
 336.266   88.622  159.026        10.39
 302.373   94.789  171.099        10.39
 171.264  146.039  226.624        10.39
 280.339   65.900   47.997        10.39
  87.047   87.834    1.229        10.39
 107.356   55.680  305.360        10.39
  85.447   19.068  100.386        10.39
 333.103   98.382   97.400        10.39
 266.649   56.620    9.504        10.39
  22.233   91.040  102.078        10.39
  84.540  101.338  317.566        10.39
 288.944  149.549  349.900        10.39
  95.700   47.030  285.590        10.39
  16.472   78.616  144.323        10.39
 166.361   61.405  279.225        10.39
 357.063  152.798  259.593        10.39
 279.353  121.721  242.573         9.53
 202.060   94.578  211.129         9.53
 294.368   30.157   42.860         9.53
 179.863  118.896  232.523         9.53
  96.293  109.522  292.861         9.53
 294.429  148.470  285.151         9.53
 261.693  160.769  265.868         9.53
 345.717  101.072  102.116         9.53
  33.072   28.858  272.804         9.53
 333.412   59.370  183.543         9.53
 201.864   82.373   77.236         9.53
 153.845   92.073  348.618         9.53
  15.892  154.167  312.547         9.53
  23.416  152.401  312.076         9.53
  65.773  160.422  303.561         9.53
 258.715   10.807   45.289         9.53
 282.395  105.368  184.198         9.53
  78.509   80.614  295.601         9.53
  11.777   78.927  145.710         9.53
 321.439   91.053  119.155         9.53
 346.043  117.289   79.995         9.53
 268.633   40.981   28.851         9.53
  86.415  143.113  335.229         9.53
 165.343   61.858  279.346         9.53
 199.952   97.277   60.120         9.53
 176.315   36.579   57.397         8.66
 113.364   73.091  307.269         8.66
  71.726  161.970  337.597         8.66
 237.772  137.127  231.770         8.66
 290.397  149.340  251.545         8.66
   0.344   13.735  154.062         8.66
 165.708   60.964  278.212         8.66
 108.747   65.866  300.286         8.66
 301.299  103.549  283.588         8.66
 104.954   60.939  297.080         8.66
 174.325  166.283  321.066         8.66
  27.014   92.784  136.519         8.66
 166.385   61.120   98.535         8.66
 177.040   91.104  211.146         7.09
 252.370  155.846  270.795         4.98
 265.241  149.339   91.253         3.77
  30.903   91.485  143.931         3.18
  93.478  121.199  320.215         2.96
 342.071  160.835   12.694         2.60
  20.526   89.420  146.395         2.60
 322.326   90.898  234.179         2.53
 181.116   24.008    8.662         2.51
 102.696   86.079  304.685         2.31
  60.591   13.382  262.810         2.29
 205.276  158.355  130.652         1.88
 229.268   27.099   79.720         1.80
 343.131   74.163  135.206         1.73
  76.036   19.059  128.671         1.73
 162.439   19.864  346.056         1.66
 181.104  146.367  188.472         1.56
  82.819   77.592  289.849         1.52
  62.641  141.649    0.427         1.15
 247.023  112.875   62.164         1.01
 120.995   59.514   48.461         1.01
   8.666   80.313  109.518         1.01
 246.779  113.062   62.143         1.01
 200.491   21.211  331.534         0.87
 329.533   89.170  145.596         0.87
  21.986   86.232  133.815         0.87
 214.694   92.425   10.905         0.87
 135.363   22.769  102.294         0.87
 343.966  112.978   84.587         0.87
 254.354   64.269   66.410         0.87
 261.271  101.940  238.703         0.87
 268.045  137.861  269.186         0.87
 157.237  142.770  209.367         0.87
 235.865   57.885  232.482         0.87
 104.835   60.884  297.198         0.87
 352.784  153.663  316.863         0.87
